 1.7560E+00
 1.8292E+00
 1.9745E+00
 2.1759E+00
 2.2302E+00
 2.3071E+00
 2.4951E+00
 2.7209E+00
 2.9254E+00
 2.9767E+00
 2.9883E+00
 3.0859E+00
 3.2373E+00
 3.3228E+00
 3.3099E+00
 3.2648E+00
 3.2965E+00
 3.2874E+00
 3.1335E+00
 2.9083E+00
 2.7155E+00
 2.6038E+00
 2.4646E+00
 2.2021E+00
 1.9269E+00
 1.7224E+00
 1.5985E+00
 1.5106E+00
 1.3470E+00
 1.2146E+00
 1.2067E+00
 1.1804E+00
 1.1066E+00
 1.0205E+00
 9.7595E-01
 1.0199E+00
 1.0553E+00
 1.1029E+00
 1.0724E+00
 9.7473E-01
 9.8511E-01
 1.0706E+00
 1.0620E+00
 9.1736E-01
 8.6975E-01
 9.1309E-01
 1.0101E+00
 1.0406E+00
 9.4543E-01
 8.4229E-01
 8.9722E-01
 1.0059E+00
 9.8633E-01
 8.9722E-01
 8.7158E-01
 9.9060E-01
 1.0510E+00
 9.4727E-01
 8.8806E-01
 9.2163E-01
 1.0504E+00
 1.1017E+00
 1.0236E+00
 9.3872E-01
 9.7168E-01
 1.0376E+00
 1.0248E+00
 9.6436E-01
 9.3689E-01
 9.8633E-01
 1.0535E+00
 9.9426E-01
 9.0820E-01
 8.9539E-01
 9.5398E-01
 1.0236E+00
 9.6558E-01
 8.8440E-01
 9.3140E-01
 9.9121E-01
 1.0028E+00
 9.0210E-01
 8.2214E-01
 8.2947E-01
 9.4543E-01
 9.9976E-01
 8.8440E-01
 8.3679E-01
 8.9111E-01
 9.6680E-01
 9.8511E-01
 8.7830E-01
 8.8928E-01
 1.0718E+00
 1.3409E+00
 1.4001E+00
 1.2909E+00
 1.2994E+00
 1.4056E+00
 1.5656E+00
 1.6711E+00
 1.7102E+00
 1.7261E+00
 1.6858E+00
 1.6980E+00
 1.7035E+00
 1.6730E+00
 1.6748E+00
 1.6949E+00
 1.5961E+00
 1.3910E+00
 1.1688E+00
 9.9548E-01
 1.0107E+00
 9.5032E-01
 7.4219E-01
 6.7200E-01
 7.2632E-01
 8.0994E-01
 7.5500E-01
 6.2012E-01
 5.8777E-01
 6.4636E-01
 6.8604E-01
 5.8716E-01
 5.2979E-01
 4.5471E-01
 1.7212E-01
-1.6541E-01
-2.5146E-01
 3.8025E-01
 1.7902E+00
 4.1388E+00
 4.9994E+00
 4.9994E+00
 4.9994E+00
 4.9994E+00
 4.9994E+00
 4.9994E+00
 2.8070E+00
-2.7832E-01
-1.4868E+00
-1.7371E+00
-1.9409E+00
-1.8945E+00
-1.4136E+00
-8.7891E-01
-3.3203E-01
 3.5400E-02
 1.3367E-01
 1.8555E-01
 2.4780E-01
 2.9907E-01
 2.4719E-01
 2.1912E-01
 2.6489E-01
 3.4851E-01
 4.2236E-01
 3.9612E-01
 3.9246E-01
 4.4189E-01
 4.7058E-01
 4.8584E-01
 4.6082E-01
 3.8940E-01
 3.9246E-01
 4.7668E-01
 4.4983E-01
 3.0884E-01
 2.9907E-01
 4.0161E-01
 5.3528E-01
 6.2073E-01
 5.2734E-01
 5.5725E-01
 8.3679E-01
 1.0168E+00
 1.0168E+00
 1.0492E+00
 1.1957E+00
 1.3544E+00
 1.4246E+00
 1.4642E+00
 1.5845E+00
 1.7896E+00
 2.0404E+00
 2.1680E+00
 2.1552E+00
 2.2540E+00
 2.4927E+00
 2.6660E+00
 2.6764E+00
 2.6532E+00
 2.7197E+00
 2.8448E+00
 2.9065E+00
 2.8186E+00
 2.6807E+00
 2.5262E+00
 2.4457E+00
 2.3828E+00
 2.1613E+00
 1.8524E+00
 1.6510E+00
 1.5283E+00
 1.3477E+00
 1.1426E+00
 9.6191E-01
 7.9590E-01
 7.9224E-01
 7.7759E-01
 6.6772E-01
 6.2561E-01
 6.5979E-01
 6.7444E-01
 6.2988E-01
 5.5664E-01
 5.1208E-01
 5.5054E-01
 5.6396E-01
 5.0964E-01
 4.7241E-01
 4.9438E-01
 5.5603E-01
 6.0852E-01
 5.1208E-01
 4.6082E-01
 5.5969E-01
 6.8787E-01
 7.5378E-01
 6.2683E-01
 5.0293E-01
 5.5786E-01
 6.7505E-01
 7.0251E-01
 6.2744E-01
 5.8472E-01
 6.5552E-01
 7.6233E-01
 6.8665E-01
 5.9082E-01
 6.5674E-01
 7.0923E-01
 7.2998E-01
 6.7444E-01
 6.3782E-01
 6.4514E-01
 6.9214E-01
 7.2021E-01
 6.6284E-01
 6.1584E-01
 5.9204E-01
 6.1218E-01
 6.0791E-01
 4.9988E-01
 4.0527E-01
 4.4189E-01
 4.7791E-01
 4.5959E-01
 4.4373E-01
 5.0171E-01
 5.9265E-01
 6.3293E-01
 5.4260E-01
 3.5461E-01
 3.3997E-01
 4.6387E-01
 4.8889E-01
 3.9734E-01
 4.1382E-01
 5.7251E-01
 7.4036E-01
 8.8684E-01
 8.5266E-01
 7.9041E-01
 8.6304E-01
 1.0004E+00
 1.1395E+00
 1.1554E+00
 1.1621E+00
 1.1908E+00
 1.1798E+00
 1.1700E+00
 1.1224E+00
 1.1261E+00
 1.1578E+00
 1.1505E+00
 9.6069E-01
 6.7261E-01
 4.7546E-01
 3.9673E-01
 3.7903E-01
 2.5635E-01
 1.4832E-01
 1.7029E-01
 2.6123E-01
 3.1921E-01
 2.7405E-01
 1.6113E-01
 1.4465E-01
 2.4048E-01
 2.5391E-01
 1.5503E-01
 1.0132E-01
-5.1270E-02
-3.5950E-01
-7.4951E-01
-9.0515E-01
-1.4282E-01
 1.4807E+00
 4.0051E+00
 4.9994E+00
 4.9994E+00
 4.9994E+00
 4.9994E+00
 4.9994E+00
 4.8889E+00
 1.5271E+00
-1.2769E+00
-2.1851E+00
-2.3956E+00
-2.6239E+00
-2.5568E+00
-2.1320E+00
-1.5399E+00
-9.4238E-01
-5.4443E-01
-4.4678E-01
-4.2725E-01
-3.7476E-01
-3.6316E-01
-3.2471E-01
-2.9907E-01
-2.4414E-01
-1.4221E-01
-1.2268E-01
-1.8555E-01
-2.0569E-01
-1.5442E-01
-3.6621E-02
-5.9204E-02
-1.9348E-01
-1.8005E-01
-2.5635E-02
 7.5073E-02
-7.0190E-02
-1.4771E-01
-6.7749E-02
 5.4932E-02
 1.2695E-01
 6.6528E-02
 5.6152E-02
 1.3428E-01
 2.8503E-01
 4.1992E-01
 4.0833E-01
 4.3152E-01
 6.1646E-01
 7.8491E-01
 8.5510E-01
 8.8013E-01
 9.9670E-01
 1.2262E+00
 1.4069E+00
 1.4966E+00
 1.5076E+00
 1.6382E+00
 1.8195E+00
 1.9275E+00
 1.9458E+00
 1.9635E+00
 2.0667E+00
 2.1490E+00
 2.1307E+00
 1.9434E+00
 1.7529E+00
 1.6095E+00
 1.4783E+00
 1.3013E+00
 1.1078E+00
 9.4177E-01
 7.7515E-01
 6.1584E-01
 4.5044E-01
 2.2705E-01
 2.8687E-02
-5.9814E-02
-1.1292E-01
-2.5208E-01
-3.8940E-01
-4.5593E-01
-4.0039E-01
-3.7598E-01
-4.7546E-01
-5.4321E-01
-5.2551E-01
-5.0171E-01
-4.8828E-01
-5.2612E-01
-5.9570E-01
-6.5430E-01
-6.5063E-01
-6.1340E-01
-6.3538E-01
-7.0251E-01
-6.8054E-01
-6.3049E-01
-6.5918E-01
-6.8909E-01
-6.7871E-01
-7.0435E-01
-6.7444E-01
-7.1350E-01
-7.6477E-01
-7.2693E-01
-7.1594E-01
-7.6660E-01
-8.6792E-01
-9.1064E-01
-9.4360E-01
-9.2407E-01
-8.2031E-01
-9.1125E-01
-9.9915E-01
-9.7961E-01
-8.9294E-01
-8.5571E-01
-9.0942E-01
-9.2834E-01
-8.7830E-01
-8.0627E-01
-8.7769E-01
-1.0065E+00
-9.7290E-01
-9.3140E-01
-9.3445E-01
-9.9609E-01
-1.1383E+00
-1.2000E+00
-1.1426E+00
-1.1115E+00
-1.2286E+00
-1.3269E+00
-1.2177E+00
-1.0876E+00
-1.0284E+00
-9.8633E-01
-9.3811E-01
-9.4055E-01
-8.8196E-01
-7.8247E-01
-6.9946E-01
-6.5369E-01
-5.6580E-01
-4.7974E-01
-5.8167E-01
-6.9458E-01
-6.1829E-01
-6.0059E-01
-6.2378E-01
-7.0557E-01
-9.2407E-01
-1.1829E+00
-1.3574E+00
-1.3727E+00
-1.4960E+00
-1.7053E+00
-1.8280E+00
-1.8201E+00
-1.7432E+00
-1.8018E+00
-1.9012E+00
-1.9153E+00
-1.8610E+00
-1.8695E+00
-1.9580E+00
-1.9891E+00
-1.9733E+00
-2.0477E+00
-2.3663E+00
-2.8918E+00
-3.0829E+00
-2.4512E+00
-1.0114E+00
 1.1914E+00
 4.2609E+00
 4.9994E+00
 4.9994E+00
 4.9994E+00
 4.9994E+00
 4.4519E+00
 2.6611E-01
-3.2422E+00
-4.6326E+00
-4.9591E+00
-5.0000E+00
-5.0000E+00
-4.5740E+00
-4.0491E+00
-3.6261E+00
-3.1097E+00
-2.6721E+00
-2.5287E+00
-2.5421E+00
-2.6422E+00
-2.6978E+00
-2.6660E+00
-2.5970E+00
-2.5562E+00
-2.6007E+00
-2.5745E+00
-2.4573E+00
-2.3065E+00
-2.2681E+00
-2.3267E+00
-2.2894E+00
-2.1869E+00
-2.1307E+00
-2.1527E+00
-2.1313E+00
-2.0978E+00
-2.0380E+00
-1.9482E+00
-2.0142E+00
-2.0850E+00
-2.0355E+00
-1.9019E+00
-1.8079E+00
-1.7682E+00
-1.7291E+00
-1.6138E+00
-1.4587E+00
-1.4050E+00
-1.4612E+00
-1.3391E+00
-1.0864E+00
-8.4290E-01
-7.1899E-01
-6.9885E-01
-6.3965E-01
-4.5349E-01
-2.6367E-01
-1.6724E-01
-1.0742E-01
-9.0332E-02
-3.9673E-02
 3.0518E-03
-4.8218E-02
-1.4099E-01
-2.5757E-01
-3.4424E-01
-4.7302E-01
-6.9763E-01
-9.3384E-01
-1.1053E+00
-1.2830E+00
-1.5619E+00
-1.8286E+00
-1.9952E+00
-2.0477E+00
-2.0959E+00
-2.2394E+00
-2.3822E+00
-2.4524E+00
-2.4152E+00
-2.3956E+00
-2.5421E+00
-2.6324E+00
-2.6343E+00
-2.5500E+00
-2.5085E+00
-2.5879E+00
-2.6508E+00
-2.6379E+00
-2.5482E+00
-2.5488E+00
-2.6276E+00
-2.5946E+00
-2.5635E+00
-2.5598E+00
-2.6862E+00
-2.7716E+00
-2.7209E+00
-2.6526E+00
-2.6276E+00
-2.6733E+00
-2.6990E+00
-2.6404E+00
-2.5854E+00
-2.5458E+00
-2.6007E+00
-2.6660E+00
-2.6953E+00
-2.6166E+00
-2.4957E+00
-2.5598E+00
-2.6678E+00
-2.6715E+00
-2.5732E+00
-2.5281E+00
-2.6147E+00
-2.6813E+00
-2.6477E+00
-2.6318E+00
-2.6794E+00
-2.7777E+00
-2.8223E+00
-2.7777E+00
-2.7094E+00
-2.7435E+00
-2.8473E+00
-2.8369E+00
-2.7460E+00
-2.6599E+00
-2.7130E+00
-2.7625E+00
-2.7057E+00
-2.5012E+00
-2.2803E+00
-2.2351E+00
-2.2833E+00
-2.2821E+00
-2.1014E+00
-1.9391E+00
-1.9409E+00
-1.9537E+00
-1.9189E+00
-1.9232E+00
-1.9403E+00
-1.9617E+00
-1.9904E+00
-1.9977E+00
-1.9934E+00
-2.1698E+00
-2.4237E+00
-2.6196E+00
-2.7026E+00
-2.7661E+00
-2.9724E+00
-3.1055E+00
-3.0682E+00
-2.9791E+00
-2.9492E+00
-3.0255E+00
-3.1366E+00
-3.1122E+00
-2.9608E+00
-2.9541E+00
-3.0444E+00
-3.1140E+00
-3.2446E+00
-3.5931E+00
-3.9569E+00
-3.9606E+00
-3.1055E+00
-1.3000E+00
 1.4758E+00
 4.6735E+00
 4.9994E+00
 4.9994E+00
 4.9994E+00
 4.9994E+00
 2.3828E+00
-1.9476E+00
-4.6979E+00
-5.0000E+00
-5.0000E+00
-5.0000E+00
-5.0000E+00
-4.9353E+00
-4.3341E+00
-3.8367E+00
-3.5449E+00
-3.4930E+00
-3.4521E+00
-3.3459E+00
-3.2648E+00
-3.2855E+00
-3.2922E+00
-3.2025E+00
-3.0804E+00
-3.0914E+00
-3.1561E+00
-3.1409E+00
-3.0353E+00
-2.9218E+00
-2.9224E+00
-2.9071E+00
-2.8253E+00
-2.6929E+00
-2.6410E+00
-2.7057E+00
-2.7649E+00
-2.7094E+00
-2.5238E+00
-2.4310E+00
-2.5262E+00
-2.4573E+00
-2.3199E+00
-2.2266E+00
-2.1844E+00
-2.1783E+00
-2.0563E+00
-1.8744E+00
-1.7090E+00
-1.6254E+00
-1.5784E+00
-1.4203E+00
-1.1694E+00
-9.2712E-01
-8.7952E-01
-8.9294E-01
-7.4097E-01
-5.6213E-01
-4.6570E-01
-4.4922E-01
-3.7720E-01
-2.8809E-01
-2.3438E-01
-2.6672E-01
-4.2908E-01
-5.1514E-01
-6.0120E-01
-7.4402E-01
-9.8328E-01
-1.2567E+00
-1.4423E+00
-1.5302E+00
-1.6376E+00
-1.8237E+00
-2.0215E+00
-2.1381E+00
-2.2021E+00
-2.2321E+00
-2.3413E+00
-2.4426E+00
-2.5055E+00
-2.4969E+00
-2.4695E+00
-2.5507E+00
-2.6410E+00
-2.6251E+00
-2.5171E+00
-2.5195E+00
-2.5433E+00
-2.5623E+00
-2.5165E+00
-2.4146E+00
-2.4353E+00
-2.5323E+00
-2.5134E+00
-2.4396E+00
-2.4048E+00
-2.4756E+00
-2.5476E+00
-2.4915E+00
-2.4329E+00
-2.3737E+00
-2.4084E+00
-2.5226E+00
-2.5214E+00
-2.4304E+00
-2.3615E+00
-2.3956E+00
-2.3999E+00
-2.3541E+00
-2.2760E+00
-2.2058E+00
-2.3145E+00
-2.3816E+00
-2.3059E+00
-2.2125E+00
-2.1893E+00
-2.2919E+00
-2.2955E+00
-2.2113E+00
-2.1722E+00
-2.2302E+00
-2.3145E+00
-2.3291E+00
-2.2937E+00
-2.2607E+00
-2.2986E+00
-2.3047E+00
-2.2632E+00
-2.1979E+00
-2.1271E+00
-2.1375E+00
-2.1606E+00
-2.0221E+00
-1.8823E+00
-1.8213E+00
-1.7755E+00
-1.7303E+00
-1.6449E+00
-1.4868E+00
-1.3843E+00
-1.4215E+00
-1.4410E+00
-1.4471E+00
-1.4581E+00
-1.4642E+00
-1.4703E+00
-1.4789E+00
-1.4221E+00
-1.3995E+00
-1.5350E+00
-1.7224E+00
-1.8567E+00
-1.8958E+00
-1.9080E+00
-2.0471E+00
-2.2546E+00
-2.2791E+00
-2.1643E+00
-2.1619E+00
-2.2485E+00
-2.2614E+00
-2.2009E+00
-2.1246E+00
-2.1326E+00
-2.2363E+00
-2.3114E+00
-2.4579E+00
-2.8217E+00
-3.1409E+00
-2.9419E+00
-1.8927E+00
-2.1362E-02
 2.9669E+00
 4.9994E+00
 4.9994E+00
 4.9994E+00
 4.9994E+00
 4.9994E+00
 2.4176E+00
-1.5448E+00
-3.7823E+00
-4.3225E+00
-4.5056E+00
-4.6490E+00
-4.3207E+00
-3.7036E+00
-3.1171E+00
-2.6654E+00
-2.4738E+00
-2.4933E+00
-2.5403E+00
-2.4811E+00
-2.4280E+00
-2.4640E+00
-2.4744E+00
-2.3956E+00
-2.3315E+00
-2.3950E+00
-2.4390E+00
-2.3901E+00
-2.2693E+00
-2.1930E+00
-2.2266E+00
-2.2333E+00
-2.1338E+00
-1.9934E+00
-1.9476E+00
-1.9781E+00
-1.9818E+00
-1.9373E+00
-1.8341E+00
-1.7535E+00
-1.7389E+00
-1.6949E+00
-1.5759E+00
-1.4246E+00
-1.3751E+00
-1.3531E+00
-1.2238E+00
-1.0547E+00
-8.4900E-01
-7.5928E-01
-7.0068E-01
-5.3162E-01
-2.8687E-01
-8.3008E-02
-5.4932E-03
 7.4463E-02
 2.6917E-01
 4.4678E-01
 5.3406E-01
 5.8289E-01
 6.2744E-01
 6.4758E-01
 7.1411E-01
 7.3792E-01
 6.3110E-01
 4.7852E-01
 3.2227E-01
 2.3254E-01
 3.9063E-02
-2.1729E-01
-3.8208E-01
-5.0720E-01
-6.4880E-01
-8.4167E-01
-1.0858E+00
-1.1951E+00
-1.1865E+00
-1.1780E+00
-1.3318E+00
-1.4148E+00
-1.4044E+00
-1.3733E+00
-1.3501E+00
-1.3647E+00
-1.3550E+00
-1.3745E+00
-1.2872E+00
-1.2256E+00
-1.3080E+00
-1.3513E+00
-1.3013E+00
-1.2061E+00
-1.1859E+00
-1.2360E+00
-1.2219E+00
-1.1237E+00
-1.0779E+00
-1.1499E+00
-1.2457E+00
-1.1877E+00
-1.0901E+00
-1.0480E+00
-1.0876E+00
-1.1090E+00
-1.0645E+00
-1.0181E+00
-9.8877E-01
-1.0364E+00
-1.0352E+00
-9.9670E-01
-9.4360E-01
-9.2590E-01
-9.5398E-01
-9.6191E-01
-9.4849E-01
-8.7891E-01
-9.0149E-01
-9.8206E-01
-9.5886E-01
-9.0149E-01
-8.2031E-01
-8.4839E-01
-9.4360E-01
-9.3201E-01
-8.1421E-01
-7.4341E-01
-7.9834E-01
-8.3252E-01
-7.8918E-01
-7.2693E-01
-6.8848E-01
-7.7209E-01
-7.9712E-01
-7.2754E-01
-6.7871E-01
-6.3354E-01
-5.4260E-01
-4.3091E-01
-3.0823E-01
-1.3672E-01
-1.2756E-01
-1.8616E-01
-1.3855E-01
 3.7842E-02
 2.3376E-01
 3.1982E-01
 2.6672E-01
 1.7639E-01
 2.0752E-01
 2.8259E-01
 2.0996E-01
 1.0864E-01
 1.1597E-01
 9.0332E-02
-7.9346E-03
-2.2217E-01
-3.8391E-01
-4.4067E-01
-4.5288E-01
-5.1514E-01
-6.1096E-01
-6.1768E-01
-5.5725E-01
-4.8584E-01
-5.1025E-01
-6.1462E-01
-6.4697E-01
-5.6824E-01
-5.0171E-01
-5.5420E-01
-7.5745E-01
-1.1243E+00
-1.4435E+00
-1.4673E+00
-8.4351E-01
 5.6152E-01
 2.9224E+00
 4.9994E+00
 4.9994E+00
 4.9994E+00
 4.9994E+00
 4.9994E+00
 4.9994E+00
 2.1179E+00
-1.1060E+00
-2.3572E+00
-2.6740E+00
-2.8961E+00
-2.8302E+00
-2.3981E+00
-1.8927E+00
-1.3330E+00
-7.9651E-01
-7.0068E-01
-8.8196E-01
-8.3130E-01
-6.1829E-01
-5.3650E-01
-5.4932E-01
-5.4321E-01
-4.9072E-01
-4.0344E-01
-3.1921E-01
-2.9785E-01
-2.9785E-01
-2.4414E-01
-1.4160E-01
-9.8267E-02
-1.3367E-01
-8.0566E-02
 4.0283E-02
 1.3733E-01
 1.4099E-01
 7.7515E-02
 1.2817E-01
 2.7771E-01
 4.0222E-01
 4.2603E-01
 4.3457E-01
 5.1941E-01
 6.4575E-01
 7.6111E-01
 7.7393E-01
 7.9285E-01
 9.3201E-01
 1.1133E+00
 1.2646E+00
 1.3507E+00
 1.4905E+00
 1.7072E+00
 1.8964E+00
 2.0032E+00
 2.0605E+00
 2.1899E+00
 2.3804E+00
 2.5787E+00
 2.6886E+00
 2.6843E+00
 2.7271E+00
 2.7783E+00
 2.7277E+00
 2.5482E+00
 2.3602E+00
 2.2253E+00
 2.1484E+00
 2.0563E+00
 1.8103E+00
 1.5399E+00
 1.3770E+00
 1.2805E+00
 1.1475E+00
 9.5825E-01
 8.0627E-01
 7.5073E-01
 7.5256E-01
 7.8552E-01
 6.5613E-01
 4.7363E-01
 5.1514E-01
 6.4514E-01
 6.7078E-01
 5.9753E-01
 6.1890E-01
 6.8726E-01
 7.4097E-01
 7.8125E-01
 6.7932E-01
 5.4382E-01
 6.1584E-01
 7.4585E-01
 6.9580E-01
 6.0547E-01
 6.4758E-01
 7.5012E-01
 8.2275E-01
 7.6050E-01
 6.3965E-01
 6.7017E-01
 7.8979E-01
 7.7881E-01
 6.8542E-01
 6.5857E-01
 7.0374E-01
 7.9407E-01
 8.1970E-01
 7.9895E-01
 8.3252E-01
 9.4910E-01
 1.0205E+00
 9.1980E-01
 8.3008E-01
 8.3130E-01
 8.6426E-01
 8.7646E-01
 8.1238E-01
 7.6660E-01
 8.3374E-01
 9.2224E-01
 9.4788E-01
 8.7463E-01
 8.0139E-01
 8.2520E-01
 9.1614E-01
 9.0515E-01
 8.2703E-01
 8.1482E-01
 8.8989E-01
 9.8572E-01
 9.8083E-01
 8.7952E-01
 8.8257E-01
 9.7839E-01
 9.9854E-01
 9.0759E-01
 8.4534E-01
 8.7708E-01
 9.4910E-01
 1.0315E+00
 1.0706E+00
 1.1102E+00
 1.2238E+00
 1.4148E+00
 1.4960E+00
 1.4124E+00
 1.3556E+00
 1.4813E+00
 1.7462E+00
 1.9434E+00
 1.8915E+00
 1.7578E+00
 1.7383E+00
 1.8726E+00
 1.8768E+00
 1.7334E+00
 1.6589E+00
 1.6351E+00
 1.5741E+00
 1.3574E+00
 1.1151E+00
 1.0254E+00
 1.0449E+00
 1.0364E+00
 9.8389E-01
 9.4360E-01
 9.2041E-01
 9.7778E-01
 1.0162E+00
 9.2102E-01
 8.3557E-01
 8.8379E-01
 1.0052E+00
 9.9243E-01
 8.7769E-01
 5.5969E-01
 1.5991E-01
 8.7280E-02
 5.9998E-01
 1.8445E+00
 3.9990E+00
 4.9994E+00
 4.9994E+00
 4.9994E+00
 4.9994E+00
 4.9994E+00
 4.9994E+00
 4.1785E+00
 8.5876E-01
-7.9468E-01
-1.2091E+00
-1.3898E+00
-1.3397E+00
-9.9487E-01
-5.7312E-01
-3.9673E-02
 4.5898E-01
 6.2439E-01
 5.8411E-01
 5.8167E-01
 6.2805E-01
 7.1594E-01
 7.0801E-01
 6.3538E-01
 6.6956E-01
 8.0261E-01
 9.2529E-01
 9.2285E-01
 8.7646E-01
 9.3506E-01
 1.0681E+00
 1.1597E+00
 1.1127E+00
 1.0809E+00
 1.0846E+00
 1.1688E+00
 1.2927E+00
 1.3440E+00
 1.3318E+00
 1.3788E+00
 1.4935E+00
 1.5387E+00
 1.4972E+00
 1.5338E+00
 1.6656E+00
 1.8610E+00
 1.9556E+00
 1.9183E+00
 1.9489E+00
 2.1375E+00
 2.3419E+00
 2.4268E+00
 2.5018E+00
 2.5989E+00
 2.7112E+00
 2.9150E+00
 3.0255E+00
 3.0750E+00
 3.1738E+00
 3.3875E+00
 3.5870E+00
 3.5577E+00
 3.5034E+00
 3.5284E+00
 3.5590E+00
 3.5266E+00
 3.2947E+00
 3.0994E+00
 2.9749E+00
 2.8741E+00
 2.6447E+00
 2.2894E+00
 2.1094E+00
 2.0422E+00
 1.9336E+00
 1.7578E+00
 1.5973E+00
 1.5161E+00
 1.5057E+00
 1.4844E+00
 1.3983E+00
 1.2903E+00
 1.2842E+00
 1.3861E+00
 1.4093E+00
 1.3458E+00
 1.2994E+00
 1.3080E+00
 1.3989E+00
 1.4331E+00
 1.3153E+00
 1.2689E+00
 1.3898E+00
 1.5082E+00
 1.4819E+00
 1.3489E+00
 1.2689E+00
 1.3263E+00
 1.4001E+00
 1.3446E+00
 1.2311E+00
 1.2238E+00
 1.3092E+00
 1.3965E+00
 1.3354E+00
 1.2695E+00
 1.2396E+00
 1.2421E+00
 1.2915E+00
 1.2604E+00
 1.2128E+00
 1.2683E+00
 1.3690E+00
 1.4459E+00
 1.4148E+00
 1.3507E+00
 1.3477E+00
 1.4093E+00
 1.4075E+00
 1.3318E+00
 1.2805E+00
 1.3397E+00
 1.4392E+00
 1.3983E+00
 1.2677E+00
 1.2500E+00
 1.3037E+00
 1.3416E+00
 1.3269E+00
 1.3068E+00
 1.2823E+00
 1.2958E+00
 1.3879E+00
 1.4166E+00
 1.3080E+00
 1.2781E+00
 1.3611E+00
 1.4178E+00
 1.3391E+00
 1.2689E+00
 1.2811E+00
 1.3562E+00
 1.3916E+00
 1.3110E+00
 1.2396E+00
 1.2695E+00
 1.3245E+00
 1.3483E+00
 1.3019E+00
 1.3446E+00
 1.5088E+00
 1.6199E+00
 1.6602E+00
 1.6882E+00
 1.7010E+00
 1.7572E+00
 1.8750E+00
 1.9318E+00
 1.9684E+00
 2.0776E+00
 2.1112E+00
 1.9751E+00
 1.9189E+00
 1.9989E+00
 2.0093E+00
 2.0746E+00
 2.0428E+00
 1.8115E+00
 1.5857E+00
 1.4716E+00
 1.4276E+00
 1.3104E+00
 1.1530E+00
 1.0858E+00
 1.0968E+00
 1.2018E+00
 1.2048E+00
 1.0681E+00
 1.0211E+00
 1.0938E+00
 1.1450E+00
 1.0699E+00
 1.0132E+00
 9.9182E-01
 8.2336E-01
 3.8818E-01
 7.8125E-02
 4.0588E-01
 1.5631E+00
 3.4485E+00
 4.9994E+00
 4.9994E+00
 4.9994E+00
 4.9994E+00
 4.9994E+00
 4.9994E+00
 4.6539E+00
 1.5295E+00
-4.2297E-01
-9.6008E-01
-1.2744E+00
-1.5021E+00
-1.2128E+00
-6.5552E-01
-1.2024E-01
 3.6377E-01
 5.7068E-01
 5.7129E-01
 6.5430E-01
 6.8298E-01
 5.8533E-01
 5.7068E-01
 7.0984E-01
 8.3313E-01
 9.1492E-01
 8.5571E-01
 8.4839E-01
 9.3811E-01
 1.0492E+00
 1.0382E+00
 1.0046E+00
 9.8755E-01
 1.0419E+00
 1.1548E+00
 1.1688E+00
 1.1273E+00
 1.1871E+00
 1.2427E+00
 1.3202E+00
 1.3214E+00
 1.3306E+00
 1.4166E+00
 1.5350E+00
 1.5869E+00
 1.5472E+00
 1.5631E+00
 1.6736E+00
 1.8140E+00
 1.9232E+00
 1.9348E+00
 2.0508E+00
 2.2986E+00
 2.5275E+00
 2.6575E+00
 2.7344E+00
 2.8564E+00
 3.0499E+00
 3.2471E+00
 3.3032E+00
 3.2703E+00
 3.3685E+00
 3.5107E+00
 3.5144E+00
 3.3575E+00
 3.2727E+00
 3.2373E+00
 3.1860E+00
 3.0963E+00
 2.8168E+00
 2.5476E+00
 2.4170E+00
 2.3401E+00
 2.1381E+00
 1.8628E+00
 1.7285E+00
 1.6919E+00
 1.6577E+00
 1.5118E+00
 1.3367E+00
 1.2659E+00
 1.2714E+00
 1.2952E+00
 1.2054E+00
 1.1194E+00
 1.1615E+00
 1.2372E+00
 1.2823E+00
 1.2482E+00
 1.2128E+00
 1.2439E+00
 1.2958E+00
 1.2891E+00
 1.2042E+00
 1.1847E+00
 1.2842E+00
 1.3220E+00
 1.2640E+00
 1.1414E+00
 1.0938E+00
 1.1444E+00
 1.1932E+00
 1.1627E+00
 1.0352E+00
 9.8145E-01
 1.0901E+00
 1.2341E+00
 1.2445E+00
 1.1871E+00
 1.1707E+00
 1.2488E+00
 1.3550E+00
 1.2665E+00
 1.1517E+00
 1.1761E+00
 1.2701E+00
 1.3220E+00
 1.2482E+00
 1.1908E+00
 1.1969E+00
 1.2598E+00
 1.2390E+00
 1.0815E+00
 1.0388E+00
 1.0901E+00
 1.1395E+00
 1.0901E+00
 1.0260E+00
 1.0962E+00
 1.1633E+00
 1.1395E+00
 1.0370E+00
 9.8816E-01
 1.0242E+00
 1.0645E+00
 1.1096E+00
 1.0028E+00
 8.5022E-01
 8.8013E-01
 9.9609E-01
 1.0339E+00
 9.6313E-01
 9.5825E-01
 9.8633E-01
 1.0638E+00
 1.0797E+00
 9.5154E-01
 9.9365E-01
 1.1902E+00
 1.3550E+00
 1.4355E+00
 1.4600E+00
 1.4270E+00
 1.4325E+00
 1.6589E+00
 1.8018E+00
 1.7932E+00
 1.8347E+00
 1.8378E+00
 1.7755E+00
 1.7200E+00
 1.6724E+00
 1.6504E+00
 1.7072E+00
 1.6956E+00
 1.5063E+00
 1.2518E+00
 1.0986E+00
 1.1090E+00
 1.0425E+00
 8.6060E-01
 8.2642E-01
 9.1125E-01
 9.7290E-01
 9.0210E-01
 8.0688E-01
 7.7637E-01
 8.6121E-01
 9.2773E-01
 8.7036E-01
 8.1177E-01
 7.7698E-01
 5.5969E-01
 1.6907E-01
-1.2512E-01
 1.7273E-01
 1.3770E+00
 3.3783E+00
 4.9994E+00
 4.9994E+00
 4.9994E+00
 4.9994E+00
 4.9994E+00
 4.9994E+00
 4.2017E+00
 1.0150E+00
-6.6711E-01
-1.1914E+00
-1.5167E+00
-1.6980E+00
-1.4246E+00
-9.0149E-01
-3.1738E-01
 1.9958E-01
 3.8147E-01
 3.4363E-01
 3.8513E-01
 4.9927E-01
 4.5776E-01
 4.0649E-01
 4.8645E-01
 6.2500E-01
 6.5369E-01
 5.3406E-01
 5.5359E-01
 6.5491E-01
 7.7698E-01
 8.9600E-01
 8.1482E-01
 7.2327E-01
 7.9224E-01
 9.5886E-01
 1.0101E+00
 9.4849E-01
 9.7656E-01
 1.0754E+00
 1.2006E+00
 1.1603E+00
 1.1029E+00
 1.1536E+00
 1.2549E+00
 1.4087E+00
 1.5100E+00
 1.6022E+00
 1.7426E+00
 1.9086E+00
 2.0245E+00
 2.0642E+00
 2.1729E+00
 2.3669E+00
 2.5922E+00
 2.7289E+00
 2.8082E+00
 2.9010E+00
 3.0170E+00
 3.2037E+00
 3.2990E+00
 3.2928E+00
 3.3435E+00
 3.4302E+00
 3.4991E+00
 3.4308E+00
 3.2794E+00
 3.1964E+00
 3.1171E+00
 2.9968E+00
 2.7325E+00
 2.4878E+00
 2.2980E+00
 2.1503E+00
 2.0349E+00
 1.8036E+00
 1.5582E+00
 1.4514E+00
 1.3892E+00
 1.2628E+00
 1.0999E+00
 1.0370E+00
 1.0602E+00
 1.1261E+00
 1.1139E+00
 1.0291E+00
 1.0242E+00
 1.0510E+00
 1.0620E+00
 1.0022E+00
 8.6731E-01
 8.5571E-01
 9.7534E-01
 1.0669E+00
 9.9976E-01
 9.6313E-01
 9.5886E-01
 9.7717E-01
 1.0114E+00
 9.5398E-01
 9.3262E-01
 9.8083E-01
 1.0352E+00
 1.0333E+00
 9.4666E-01
 8.9783E-01
 9.1248E-01
 1.0156E+00
 1.0004E+00
 8.8318E-01
 8.2947E-01
 9.0698E-01
 1.0516E+00
 1.0156E+00
 8.8196E-01
 8.6792E-01
 9.6069E-01
 1.0541E+00
 1.0040E+00
 9.3506E-01
 9.8022E-01
 1.1163E+00
 1.1371E+00
 9.6069E-01
 8.1604E-01
 8.3984E-01
 9.2407E-01
 9.0759E-01
 8.4045E-01
 8.3130E-01
 8.1909E-01
 8.2947E-01
 8.6975E-01
 8.3618E-01
 7.7515E-01
 8.1299E-01
 9.2773E-01
 8.6487E-01
 6.7017E-01
 5.8411E-01
 8.1543E-01
 1.1005E+00
 1.1053E+00
 1.0785E+00
 1.2195E+00
 1.3391E+00
 1.3684E+00
 1.3287E+00
 1.3800E+00
 1.5222E+00
 1.6632E+00
 1.5833E+00
 1.4148E+00
 1.4038E+00
 1.4929E+00
 1.5680E+00
 1.4844E+00
 1.2701E+00
 1.0889E+00
 9.4055E-01
 8.9966E-01
 8.4106E-01
 6.9580E-01
 5.7373E-01
 5.5115E-01
 6.3965E-01
 5.8105E-01
 4.2297E-01
 4.0710E-01
 5.2856E-01
 5.5176E-01
 4.4128E-01
 3.8940E-01
 4.2236E-01
 4.6692E-01
 2.8625E-01
-1.8677E-01
-5.3711E-01
-3.0945E-01
 7.7820E-01
 2.6227E+00
 4.9121E+00
 4.9994E+00
 4.9994E+00
 4.9994E+00
 4.9994E+00
 4.9994E+00
 4.1626E+00
 1.9958E-01
-1.4893E+00
-2.1088E+00
-2.4786E+00
-2.4890E+00
-2.1246E+00
-1.5808E+00
-1.1206E+00
-6.8726E-01
-2.6184E-01
 1.2207E-03
 4.2114E-02
 7.3242E-03
 1.2207E-03
 6.5918E-02
 1.4282E-01
 1.0925E-01
 6.7749E-02
 1.2451E-01
 1.9348E-01
 2.5574E-01
 3.1006E-01
 3.1799E-01
 3.3569E-01
 3.3020E-01
 3.9307E-01
 3.8086E-01
 3.8696E-01
 4.2847E-01
 5.1270E-01
 6.2378E-01
 6.2317E-01
 5.6580E-01
 6.5247E-01
 8.6243E-01
 9.7473E-01
 9.0759E-01
 9.3262E-01
 1.0315E+00
 1.1884E+00
 1.3312E+00
 1.3715E+00
 1.4996E+00
 1.6998E+00
 1.8805E+00
 1.9788E+00
 2.0441E+00
 2.1594E+00
 2.2766E+00
 2.4158E+00
 2.5403E+00
 2.5757E+00
 2.6172E+00
 2.8040E+00
 2.8967E+00
 2.8015E+00
 2.7277E+00
 2.6672E+00
 2.6434E+00
 2.5391E+00
 2.2150E+00
 1.9293E+00
 1.7853E+00
 1.6846E+00
 1.4966E+00
 1.2299E+00
 1.0669E+00
 8.5388E-01
 7.5256E-01
 7.6538E-01
 5.8655E-01
 4.6692E-01
 5.0171E-01
 5.0903E-01
 4.1077E-01
 3.4546E-01
 3.5706E-01
 3.7781E-01
 4.1077E-01
 3.6316E-01
 3.0640E-01
 2.5940E-01
 2.4841E-01
 2.2461E-01
 1.7151E-01
 2.1423E-01
 2.9480E-01
 3.4912E-01
 3.3386E-01
 3.1311E-01
 3.0273E-01
 3.2654E-01
 3.5889E-01
 3.4119E-01
 2.6672E-01
 2.1179E-01
 2.3438E-01
 3.0579E-01
 3.2654E-01
 2.9175E-01
 2.8625E-01
 3.0762E-01
 3.3142E-01
 2.8503E-01
 2.0020E-01
 1.9470E-01
 2.5513E-01
 2.7588E-01
 2.0630E-01
 1.8860E-01
 2.4109E-01
 3.0334E-01
 3.1067E-01
 2.0264E-01
 1.0315E-01
 9.2163E-02
 2.0996E-01
 2.2095E-01
 9.7046E-02
 1.0254E-01
 1.8372E-01
 2.3010E-01
 2.2522E-01
 1.8799E-01
 1.2939E-01
 1.7700E-01
 2.9602E-01
 3.1494E-01
 3.4241E-01
 4.7546E-01
 6.1218E-01
 6.4514E-01
 5.7129E-01
 6.4758E-01
 8.6853E-01
 1.1060E+00
 1.1731E+00
 1.0156E+00
 8.7769E-01
 8.8989E-01
 9.5154E-01
 8.7341E-01
 7.7393E-01
 7.0435E-01
 6.0486E-01
 4.8096E-01
 3.0884E-01
 1.6052E-01
 6.1646E-02
 4.6997E-02
 7.2021E-02
-2.2583E-02
-1.1658E-01
-1.2695E-01
-8.4229E-02
-1.8921E-02
-6.5308E-02
-1.3733E-01
-1.0925E-01
 2.0752E-02
-5.0659E-02
-4.6265E-01
-1.0217E+00
-1.2543E+00
-7.7209E-01
 3.8696E-01
 2.2327E+00
 4.7949E+00
 4.9994E+00
 4.9994E+00
 4.9994E+00
 4.9994E+00
 4.9994E+00
 3.6469E+00
-5.7861E-01
-2.0972E+00
-2.7032E+00
-3.0310E+00
-2.9333E+00
-2.5153E+00
-2.0917E+00
-1.6174E+00
-1.0443E+00
-6.0791E-01
-4.6997E-01
-5.3772E-01
-6.0181E-01
-5.5420E-01
-4.5349E-01
-4.2542E-01
-5.5969E-01
-6.0425E-01
-4.9561E-01
-3.6621E-01
-3.2593E-01
-3.6011E-01
-3.7903E-01
-2.9541E-01
-1.8066E-01
-1.9287E-01
-2.1545E-01
-1.3306E-01
-7.9346E-03
 5.5542E-02
 9.7656E-03
 1.3428E-02
 1.5564E-01
 3.1616E-01
 3.4668E-01
 3.0945E-01
 3.5522E-01
 5.0171E-01
 6.5308E-01
 7.1106E-01
 7.2754E-01
 8.0688E-01
 1.0016E+00
 1.2274E+00
 1.3104E+00
 1.3580E+00
 1.5149E+00
 1.7627E+00
 2.0062E+00
 2.0880E+00
 2.0941E+00
 2.1747E+00
 2.3346E+00
 2.3975E+00
 2.3224E+00
 2.2559E+00
 2.2693E+00
 2.2809E+00
 2.1442E+00
 1.9104E+00
 1.7352E+00
 1.5448E+00
 1.3727E+00
 1.1493E+00
 8.0139E-01
 5.8838E-01
 4.8279E-01
 4.0466E-01
 2.5635E-01
 2.5024E-02
-5.0659E-02
 6.1035E-03
 2.3193E-02
-1.1658E-01
-2.2217E-01
-1.8250E-01
-1.0498E-01
-5.2490E-02
-1.2573E-01
-2.2522E-01
-2.4292E-01
-2.0691E-01
-1.9165E-01
-2.2827E-01
-2.0996E-01
-1.4404E-01
-7.8735E-02
-1.0498E-01
-2.0996E-01
-2.7344E-01
-2.1423E-01
-1.5930E-01
-2.4414E-01
-2.8259E-01
-2.7832E-01
-2.5574E-01
-1.1658E-01
-1.1719E-01
-2.2095E-01
-2.5269E-01
-2.3071E-01
-2.2583E-01
-3.1250E-01
-3.3264E-01
-2.4658E-01
-1.8188E-01
-1.7456E-01
-2.9053E-01
-3.2410E-01
-2.5635E-01
-1.7517E-01
-1.7639E-01
-2.5024E-01
-2.2522E-01
-2.1423E-01
-1.8799E-01
-2.0508E-01
-2.6855E-01
-2.7283E-01
-2.2278E-01
-9.3384E-02
-7.2021E-02
-4.9438E-02
 9.7046E-02
 2.5757E-01
 3.1494E-01
 2.5208E-01
 2.3376E-01
 3.8147E-01
 5.8350E-01
 6.5491E-01
 5.0354E-01
 3.6804E-01
 4.4495E-01
 5.1086E-01
 3.7903E-01
 2.6428E-01
 2.2156E-01
 1.1414E-01
-7.9346E-03
-1.3794E-01
-3.2043E-01
-4.1321E-01
-3.9856E-01
-3.8696E-01
-4.5776E-01
-5.3955E-01
-5.3406E-01
-4.9988E-01
-5.1636E-01
-6.6284E-01
-7.8979E-01
-7.2021E-01
-5.5847E-01
-5.4504E-01
-8.8196E-01
-1.4301E+00
-1.7346E+00
-1.4655E+00
-4.1565E-01
 1.3458E+00
 4.1241E+00
 4.9994E+00
 4.9994E+00
 4.9994E+00
 4.9994E+00
 4.9994E+00
 3.8147E+00
-3.3508E-01
-2.2925E+00
-3.0927E+00
-3.4015E+00
-3.3612E+00
-2.9590E+00
-2.4963E+00
-2.0593E+00
-1.5039E+00
-1.1218E+00
-1.1072E+00
-1.1578E+00
-1.1414E+00
-1.1432E+00
-1.0339E+00
-9.1553E-01
-9.9304E-01
-1.0272E+00
-9.1675E-01
-8.1055E-01
-8.1055E-01
-8.4595E-01
-8.2703E-01
-6.9031E-01
-5.7739E-01
-5.8960E-01
-6.4575E-01
-6.2744E-01
-5.1025E-01
-4.2664E-01
-4.5593E-01
-4.6082E-01
-4.0833E-01
-3.1555E-01
-2.1362E-01
-1.9592E-01
-1.3611E-01
-4.0283E-02
 9.8267E-02
 1.9836E-01
 1.7334E-01
 2.6794E-01
 4.7729E-01
 6.9702E-01
 7.8918E-01
 7.7698E-01
 8.8928E-01
 1.1206E+00
 1.2878E+00
 1.4624E+00
 1.6559E+00
 1.7969E+00
 1.9629E+00
 2.0679E+00
 2.0148E+00
 1.9080E+00
 1.7944E+00
 1.7456E+00
 1.6583E+00
 1.4337E+00
 1.2463E+00
 1.0919E+00
 9.5825E-01
 7.9224E-01
 5.2063E-01
 2.5085E-01
 1.2573E-01
 1.8311E-02
-1.4038E-01
-2.7222E-01
-3.4668E-01
-3.6682E-01
-3.7964E-01
-4.5959E-01
-5.8044E-01
-5.9814E-01
-5.2551E-01
-4.8462E-01
-5.6458E-01
-6.5063E-01
-6.2622E-01
-5.2551E-01
-4.6387E-01
-5.3589E-01
-5.8716E-01
-5.2856E-01
-4.8950E-01
-5.0293E-01
-5.3833E-01
-5.3406E-01
-4.9255E-01
-3.9978E-01
-3.9612E-01
-4.7058E-01
-4.6387E-01
-3.9307E-01
-3.9612E-01
-5.3284E-01
-5.6824E-01
-4.7241E-01
-3.9368E-01
-3.8330E-01
-5.2307E-01
-6.0059E-01
-5.4749E-01
-4.4861E-01
-3.9551E-01
-4.7119E-01
-5.2856E-01
-5.1147E-01
-4.3335E-01
-4.3762E-01
-5.4565E-01
-6.0486E-01
-5.9326E-01
-5.6763E-01
-5.7861E-01
-6.6162E-01
-7.3669E-01
-6.7505E-01
-5.6946E-01
-6.0547E-01
-5.6702E-01
-3.8086E-01
-2.8931E-01
-2.6245E-01
-1.7578E-01
-1.3916E-01
-1.0925E-01
-5.4321E-02
 4.6997E-02
 1.4893E-01
 2.5024E-01
 3.2104E-01
 2.8625E-01
 2.3804E-01
 2.0325E-01
 1.7822E-01
 1.8188E-01
 2.2095E-01
 1.2756E-01
-1.2207E-01
-2.9846E-01
-3.4546E-01
-3.3997E-01
-4.8462E-01
-6.8115E-01
-7.4829E-01
-7.0129E-01
-6.6101E-01
-7.4707E-01
-8.3557E-01
-7.9895E-01
-6.9702E-01
-6.7200E-01
-7.4219E-01
-7.6904E-01
-7.5745E-01
-9.1248E-01
-1.3275E+00
-1.7004E+00
-1.5076E+00
-4.0527E-01
 1.5210E+00
 4.2712E+00
 4.9994E+00
 4.9994E+00
 4.9994E+00
 4.9994E+00
 4.9994E+00
 3.5217E+00
-4.8828E-01
-2.2766E+00
-2.8851E+00
-3.2935E+00
-3.5028E+00
-3.1714E+00
-2.5934E+00
-1.9830E+00
-1.4941E+00
-1.2524E+00
-1.1725E+00
-1.1377E+00
-1.1090E+00
-1.1414E+00
-1.1285E+00
-1.0632E+00
-1.0425E+00
-1.0791E+00
-1.0773E+00
-1.0309E+00
-9.7046E-01
-8.5999E-01
-8.5327E-01
-9.0759E-01
-8.5876E-01
-7.6782E-01
-6.2073E-01
-6.0425E-01
-7.0313E-01
-6.2439E-01
-4.8767E-01
-4.1199E-01
-4.4739E-01
-4.3945E-01
-3.4424E-01
-1.3977E-01
-6.1035E-02
-1.1292E-01
-5.7373E-02
 1.0376E-01
 3.0151E-01
 4.5044E-01
 5.3406E-01
 6.4148E-01
 8.0017E-01
 9.7900E-01
 1.0889E+00
 1.2000E+00
 1.3953E+00
 1.5924E+00
 1.7194E+00
 1.7432E+00
 1.7578E+00
 1.7987E+00
 1.9800E+00
 2.0789E+00
 1.9293E+00
 1.7664E+00
 1.6772E+00
 1.6260E+00
 1.4374E+00
 1.1798E+00
 9.5825E-01
 7.7515E-01
 6.9214E-01
 5.2612E-01
 2.7405E-01
 1.3428E-01
 9.6436E-02
-1.0986E-02
-1.6357E-01
-2.5330E-01
-2.8809E-01
-2.5635E-01
-2.0752E-01
-2.5818E-01
-3.2227E-01
-3.1799E-01
-2.7344E-01
-2.6611E-01
-3.6926E-01
-4.1443E-01
-3.1616E-01
-2.3865E-01
-2.5818E-01
-3.2288E-01
-3.1616E-01
-2.5452E-01
-2.0996E-01
-2.4414E-01
-2.8687E-01
-2.9846E-01
-3.2898E-01
-2.8503E-01
-2.6855E-01
-3.5950E-01
-3.7598E-01
-3.1555E-01
-2.5818E-01
-3.2471E-01
-4.0894E-01
-3.5095E-01
-3.1250E-01
-3.0273E-01
-3.1799E-01
-3.5400E-01
-3.3813E-01
-2.5940E-01
-2.4658E-01
-3.3081E-01
-4.2114E-01
-3.8696E-01
-2.6123E-01
-2.9358E-01
-4.0955E-01
-4.0771E-01
-3.6072E-01
-3.0945E-01
-2.8503E-01
-3.6499E-01
-4.5715E-01
-4.2114E-01
-3.4180E-01
-4.2847E-01
-5.3772E-01
-5.0476E-01
-3.3997E-01
-2.8564E-01
-3.2898E-01
-2.8625E-01
-1.6968E-01
-5.1270E-02
 3.5400E-02
 4.3945E-02
 4.0894E-02
 1.0132E-01
 2.3926E-01
 3.4119E-01
 4.0222E-01
 4.7180E-01
 4.2603E-01
 3.8269E-01
 3.7659E-01
 3.1311E-01
 2.9602E-01
 3.3081E-01
 3.3813E-01
 1.9287E-01
-3.4790E-02
-2.0813E-01
-2.6855E-01
-2.9663E-01
-4.3091E-01
-5.4993E-01
-5.8044E-01
-5.2917E-01
-4.9255E-01
-5.7251E-01
-6.3904E-01
-5.8411E-01
-4.9622E-01
-5.2124E-01
-6.3293E-01
-7.6965E-01
-9.7717E-01
-1.3635E+00
-1.6724E+00
-1.4850E+00
-4.5471E-01
 1.4215E+00
 4.2218E+00
 4.9994E+00
 4.9994E+00
 4.9994E+00
 4.9994E+00
 4.9994E+00
 3.8519E+00
-1.0193E-01
-1.9269E+00
-2.5623E+00
-2.9254E+00
-3.1866E+00
-2.9602E+00
-2.3505E+00
-1.7365E+00
-1.2262E+00
-1.0504E+00
-1.0907E+00
-1.0431E+00
-8.8135E-01
-8.5510E-01
-9.4360E-01
-9.6252E-01
-8.5693E-01
-7.6355E-01
-7.8369E-01
-7.8613E-01
-7.0740E-01
-6.3965E-01
-5.7312E-01
-5.8594E-01
-5.9692E-01
-5.5725E-01
-4.5044E-01
-3.9551E-01
-4.4250E-01
-4.3274E-01
-3.5034E-01
-2.1301E-01
-1.9409E-01
-2.3743E-01
-1.7334E-01
-6.7749E-02
 5.4932E-02
 9.7046E-02
 1.0559E-01
 2.3804E-01
 3.8025E-01
 5.8655E-01
 7.7454E-01
 8.6670E-01
 9.6619E-01
 1.1938E+00
 1.4319E+00
 1.4661E+00
 1.5356E+00
 1.7297E+00
 1.8811E+00
 1.9965E+00
 1.9910E+00
 1.9122E+00
 1.9135E+00
 1.9830E+00
 1.9458E+00
 1.7859E+00
 1.6840E+00
 1.5942E+00
 1.4465E+00
 1.2067E+00
 9.1492E-01
 7.1472E-01
 5.9387E-01
 5.1025E-01
 2.9297E-01
 4.0283E-02
-1.3062E-01
-1.9043E-01
-1.9287E-01
-2.5757E-01
-3.3508E-01
-3.5400E-01
-3.1372E-01
-3.4546E-01
-4.3213E-01
-4.6448E-01
-4.1809E-01
-3.2104E-01
-3.1738E-01
-4.2725E-01
-5.0415E-01
-4.2725E-01
-3.4363E-01
-3.8696E-01
-5.0659E-01
-5.2979E-01
-4.5166E-01
-3.8391E-01
-4.2603E-01
-5.1025E-01
-5.0049E-01
-4.1260E-01
-3.5095E-01
-3.7964E-01
-4.0771E-01
-3.5828E-01
-3.1860E-01
-3.4424E-01
-4.0283E-01
-4.0771E-01
-3.4790E-01
-3.0640E-01
-3.5645E-01
-4.1809E-01
-4.3152E-01
-3.9856E-01
-3.0762E-01
-3.1860E-01
-4.4006E-01
-4.9377E-01
-4.1565E-01
-3.1677E-01
-3.2349E-01
-3.7903E-01
-3.8391E-01
-3.0579E-01
-3.0945E-01
-4.5410E-01
-5.0964E-01
-4.0833E-01
-3.0518E-01
-2.9236E-01
-4.0588E-01
-4.4067E-01
-3.9429E-01
-3.4912E-01
-3.8452E-01
-5.1636E-01
-5.3162E-01
-4.6936E-01
-3.6133E-01
-3.8330E-01
-4.3640E-01
-2.8137E-01
-6.1646E-02
 1.1047E-01
 1.4221E-01
 6.1035E-02
 1.8311E-03
 9.0942E-02
 3.0701E-01
 4.4128E-01
 4.7546E-01
 4.9011E-01
 4.9561E-01
 4.7546E-01
 4.3884E-01
 3.4729E-01
 3.2471E-01
 3.7964E-01
 2.7588E-01
 1.1597E-02
-1.5991E-01
-1.6418E-01
-1.7334E-01
-2.6550E-01
-3.9917E-01
-4.3152E-01
-3.8269E-01
-3.6499E-01
-3.8391E-01
-4.3213E-01
-5.0354E-01
-5.1392E-01
-4.1016E-01
-4.3640E-01
-5.5054E-01
-6.4880E-01
-9.9792E-01
-1.3403E+00
-1.2463E+00
-3.0640E-01
 1.4526E+00
 4.1772E+00
 4.9994E+00
 4.9994E+00
 4.9994E+00
 4.9994E+00
 4.9994E+00
 4.2755E+00
 1.4038E-01
-1.8713E+00
-2.5372E+00
-2.8485E+00
-2.9596E+00
-2.7716E+00
-2.3315E+00
-1.7706E+00
-1.2372E+00
-9.6985E-01
-9.2773E-01
-8.5876E-01
-7.4402E-01
-6.8604E-01
-6.5552E-01
-5.9998E-01
-5.3711E-01
-4.8706E-01
-5.0659E-01
-5.7739E-01
-5.4443E-01
-3.9063E-01
-2.5391E-01
-2.7832E-01
-3.4302E-01
-2.4414E-01
-1.3855E-01
-5.3101E-02
-9.2163E-02
-1.6663E-01
-1.0376E-01
 6.2866E-02
 1.6541E-01
 1.1414E-01
 1.3123E-01
 2.3804E-01
 3.8818E-01
 5.0110E-01
 4.9683E-01
 4.9255E-01
 6.0974E-01
 7.8308E-01
 9.4177E-01
 1.0730E+00
 1.2317E+00
 1.3922E+00
 1.6418E+00
 1.7688E+00
 1.8195E+00
 1.9342E+00
 2.0795E+00
 2.2449E+00
 2.2968E+00
 2.3163E+00
 2.3334E+00
 2.4115E+00
 2.5385E+00
 2.4426E+00
 2.2528E+00
 2.0514E+00
 1.8958E+00
 1.7438E+00
 1.4374E+00
 1.1530E+00
 1.0010E+00
 8.8806E-01
 7.2754E-01
 5.0415E-01
 3.4729E-01
 2.7344E-01
 2.4658E-01
 1.6235E-01
 1.5259E-02
-6.7139E-02
-3.9063E-02
 4.5166E-02
 3.4180E-02
-6.5918E-02
-1.3733E-01
-1.3550E-01
-1.0864E-01
-1.5869E-01
-2.4780E-01
-2.1912E-01
-1.2634E-01
-1.1353E-01
-2.4414E-01
-2.5391E-01
-1.9165E-01
-1.4221E-01
-9.2773E-02
-1.9531E-01
-2.8625E-01
-2.3621E-01
-1.6174E-01
-1.5686E-01
-2.5391E-01
-2.4353E-01
-1.5320E-01
-1.0376E-01
-1.6663E-01
-2.1912E-01
-2.2583E-01
-2.2339E-01
-1.4221E-01
-1.8616E-01
-3.3264E-01
-2.8320E-01
-1.7090E-01
-1.6907E-01
-2.0020E-01
-2.0630E-01
-1.6663E-01
-9.3384E-02
-1.0742E-01
-2.2949E-01
-2.9785E-01
-3.5889E-01
-3.2593E-01
-2.4719E-01
-3.1250E-01
-3.1555E-01
-2.1729E-01
-1.6174E-01
-2.3438E-01
-3.6194E-01
-3.6438E-01
-2.9846E-01
-2.7832E-01
-3.0396E-01
-2.9846E-01
-1.9897E-01
-6.8359E-02
-3.7842E-02
-5.9814E-02
 1.3428E-02
 1.3977E-01
 2.3315E-01
 2.8748E-01
 3.1921E-01
 4.1260E-01
 5.3162E-01
 6.7200E-01
 5.8289E-01
 3.7598E-01
 3.5889E-01
 4.4434E-01
 5.4932E-01
 5.1392E-01
 2.7222E-01
 1.8311E-02
-1.3672E-01
-2.0203E-01
-3.1494E-01
-4.8035E-01
-5.2185E-01
-4.6204E-01
-4.5898E-01
-5.5908E-01
-6.6833E-01
-6.6711E-01
-5.7617E-01
-5.5115E-01
-6.3965E-01
-6.8176E-01
-6.0547E-01
-5.5237E-01
-8.9783E-01
-1.4948E+00
-1.6913E+00
-1.0388E+00
 3.8574E-01
 2.6434E+00
 4.9994E+00
 4.9994E+00
 4.9994E+00
 4.9994E+00
 4.9994E+00
 4.9994E+00
 1.4075E+00
-1.8994E+00
-2.8253E+00
-3.2593E+00
-3.4833E+00
-3.3392E+00
-2.8839E+00
-2.3456E+00
-1.8976E+00
-1.4893E+00
-1.1810E+00
-1.0004E+00
-9.3323E-01
-9.5337E-01
-8.7952E-01
-7.5378E-01
-6.5796E-01
-6.4087E-01
-6.3904E-01
-6.4270E-01
-5.8960E-01
-4.5593E-01
-4.5166E-01
-5.4382E-01
-5.6091E-01
-4.2725E-01
-3.5828E-01
-4.0649E-01
-3.9917E-01
-3.6133E-01
-2.5757E-01
-1.5625E-01
-1.8066E-01
-1.9592E-01
-7.8735E-02
 5.1880E-02
 9.6436E-02
 1.1230E-01
 1.6602E-01
 3.1311E-01
 4.8035E-01
 4.7852E-01
 4.4128E-01
 5.7922E-01
 8.6365E-01
 1.1438E+00
 1.2292E+00
 1.2579E+00
 1.4240E+00
 1.6321E+00
 1.7957E+00
 1.8048E+00
 1.8158E+00
 1.9196E+00
 1.9989E+00
 2.0239E+00
 1.9794E+00
 1.9116E+00
 1.8536E+00
 1.7773E+00
 1.6113E+00
 1.3531E+00
 1.1151E+00
 9.6436E-01
 8.6182E-01
 6.6162E-01
 4.2603E-01
 2.3010E-01
 1.1536E-01
 5.0049E-02
-9.2163E-02
-2.4353E-01
-2.7161E-01
-2.8381E-01
-3.3813E-01
-4.1321E-01
-4.7791E-01
-4.4922E-01
-4.1260E-01
-3.7903E-01
-4.0894E-01
-3.9795E-01
-3.7720E-01
-3.3936E-01
-3.2959E-01
-4.3884E-01
-5.2124E-01
-4.9500E-01
-4.0039E-01
-4.0894E-01
-4.6936E-01
-4.6875E-01
-4.2358E-01
-3.6499E-01
-4.4556E-01
-5.1514E-01
-4.6814E-01
-4.3213E-01
-4.0100E-01
-4.5959E-01
-4.8767E-01
-4.2053E-01
-3.6072E-01
-3.4241E-01
-4.1687E-01
-4.8889E-01
-4.1870E-01
-3.0273E-01
-3.1982E-01
-4.3640E-01
-4.9561E-01
-4.4617E-01
-3.4668E-01
-3.4546E-01
-4.2908E-01
-4.4983E-01
-3.8757E-01
-3.1738E-01
-3.5400E-01
-4.3823E-01
-4.6143E-01
-3.9551E-01
-3.0518E-01
-3.3997E-01
-4.1504E-01
-4.3518E-01
-3.8269E-01
-3.0640E-01
-4.0833E-01
-4.8462E-01
-4.0833E-01
-2.1362E-01
-9.7656E-02
-9.3994E-02
-3.1128E-02
 3.1738E-02
 8.2397E-02
 1.2146E-01
 1.4954E-01
 2.0386E-01
 3.1433E-01
 4.0833E-01
 3.1921E-01
 2.4536E-01
 2.7893E-01
 3.7354E-01
 4.3457E-01
 2.6062E-01
 6.2256E-02
-6.5308E-02
-1.7578E-01
-2.5085E-01
-3.8452E-01
-5.1392E-01
-5.5176E-01
-5.0781E-01
-4.7668E-01
-5.7190E-01
-6.4453E-01
-5.6213E-01
-5.0110E-01
-5.1575E-01
-6.0852E-01
-6.7871E-01
-6.3110E-01
-6.9458E-01
-1.1542E+00
-1.6266E+00
-1.5558E+00
-6.4880E-01
 1.0217E+00
 3.6060E+00
 4.9994E+00
 4.9994E+00
 4.9994E+00
 4.9994E+00
 4.9994E+00
 4.8096E+00
 1.9104E-01
-2.3016E+00
-2.9999E+00
-3.4253E+00
-3.5638E+00
-3.2587E+00
-2.6019E+00
-2.0343E+00
-1.5997E+00
-1.2164E+00
-1.0248E+00
-9.5642E-01
-9.5947E-01
-9.7595E-01
-9.1003E-01
-8.4106E-01
-7.6477E-01
-7.9773E-01
-8.2947E-01
-8.0322E-01
-7.2998E-01
-6.6711E-01
-7.1167E-01
-7.1228E-01
-6.1279E-01
-4.7791E-01
-4.6143E-01
-5.5542E-01
-5.8472E-01
-4.7729E-01
-3.5034E-01
-2.8992E-01
-3.1982E-01
-2.7405E-01
-1.3855E-01
-2.1362E-02
-3.0518E-02
-5.2490E-02
-3.0518E-03
 1.2268E-01
 3.0090E-01
 3.7476E-01
 4.5288E-01
 5.7251E-01
 7.5012E-01
 9.9426E-01
 1.0614E+00
 1.1072E+00
 1.3129E+00
 1.5704E+00
 1.7188E+00
 1.7023E+00
 1.6504E+00
 1.7627E+00
 1.9037E+00
 1.9391E+00
 1.8469E+00
 1.8042E+00
 1.7725E+00
 1.6895E+00
 1.4594E+00
 1.1841E+00
 1.0278E+00
 8.8318E-01
 7.0984E-01
 4.6448E-01
 2.6245E-01
 1.4099E-01
 4.2725E-02
-3.4790E-02
-1.9226E-01
-3.6499E-01
-4.2908E-01
-3.9124E-01
-3.8940E-01
-4.9377E-01
-5.7373E-01
-5.2368E-01
-3.9124E-01
-4.0466E-01
-4.7180E-01
-4.7241E-01
-4.0771E-01
-3.8635E-01
-4.7302E-01
-5.7251E-01
-5.3833E-01
-4.6082E-01
-4.4373E-01
-4.9500E-01
-5.7800E-01
-5.7983E-01
-4.6997E-01
-4.5349E-01
-5.5725E-01
-5.9204E-01
-5.9265E-01
-5.5298E-01
-5.4016E-01
-6.3354E-01
-7.3242E-01
-7.2388E-01
-6.5125E-01
-6.7322E-01
-7.3120E-01
-7.1289E-01
-6.6223E-01
-6.1157E-01
-6.3843E-01
-6.5125E-01
-6.2866E-01
-5.8899E-01
-5.2734E-01
-5.8228E-01
-6.7810E-01
-6.4697E-01
-5.4871E-01
-5.1147E-01
-5.9998E-01
-6.5796E-01
-6.3049E-01
-6.0120E-01
-6.2622E-01
-6.7566E-01
-7.1228E-01
-6.8115E-01
-5.7983E-01
-5.6702E-01
-6.4026E-01
-6.7688E-01
-6.2317E-01
-5.6213E-01
-5.9875E-01
-6.2256E-01
-5.1758E-01
-3.1494E-01
-1.6174E-01
-1.4832E-01
-1.8860E-01
-1.1047E-01
 1.2268E-01
 2.9602E-01
 3.1372E-01
 3.6011E-01
 4.0771E-01
 3.2715E-01
 1.6052E-01
-5.4932E-03
 9.7656E-03
 1.4038E-01
 2.2400E-01
 1.5686E-01
-8.2397E-02
-3.0457E-01
-3.9246E-01
-4.1931E-01
-5.4382E-01
-6.9519E-01
-7.2998E-01
-7.1045E-01
-7.1289E-01
-7.7148E-01
-8.2397E-01
-7.9163E-01
-7.5439E-01
-7.3730E-01
-8.2336E-01
-9.0942E-01
-9.8389E-01
-1.2433E+00
-1.5924E+00
-1.7706E+00
-1.2000E+00
 2.5391E-01
 2.6941E+00
 4.9994E+00
 4.9994E+00
 4.9994E+00
 4.9994E+00
 4.9994E+00
 4.9994E+00
 1.2988E+00
-1.8561E+00
-2.8461E+00
-3.2233E+00
-3.4839E+00
-3.4467E+00
-2.9425E+00
-2.3346E+00
-1.7456E+00
-1.3733E+00
-1.3171E+00
-1.2567E+00
-1.1072E+00
-1.0236E+00
-1.1340E+00
-1.2250E+00
-1.1157E+00
-9.8877E-01
-9.9487E-01
-1.0370E+00
-9.9915E-01
-9.1919E-01
-8.6792E-01
-8.4900E-01
-9.1309E-01
-9.3689E-01
-8.4778E-01
-7.8308E-01
-8.5815E-01
-9.1675E-01
-8.8867E-01
-8.1238E-01
-7.1838E-01
-7.3730E-01
-7.4341E-01
-6.5186E-01
-5.3223E-01
-4.9500E-01
-5.0903E-01
-4.4006E-01
-3.0212E-01
-7.6294E-02
 1.1475E-01
 1.8982E-01
 3.8269E-01
 6.6711E-01
 8.9844E-01
 9.7168E-01
 9.7290E-01
 1.0956E+00
 1.2628E+00
 1.4581E+00
 1.5601E+00
 1.5503E+00
 1.5955E+00
 1.7407E+00
 1.7670E+00
 1.6467E+00
 1.5179E+00
 1.3971E+00
 1.2592E+00
 1.0913E+00
 8.6914E-01
 6.6040E-01
 4.7729E-01
 3.9795E-01
 2.6367E-01
-4.3945E-02
-2.8076E-01
-4.3762E-01
-5.0476E-01
-5.2368E-01
-6.4148E-01
-7.3364E-01
-7.4890E-01
-6.8054E-01
-7.0129E-01
-8.4717E-01
-8.6426E-01
-7.8186E-01
-6.5308E-01
-6.6467E-01
-7.5745E-01
-7.7393E-01
-7.3792E-01
-6.9519E-01
-7.5928E-01
-8.4290E-01
-8.0994E-01
-7.0129E-01
-6.6956E-01
-7.1899E-01
-7.5439E-01
-7.5745E-01
-6.7139E-01
-7.0496E-01
-8.2581E-01
-8.5327E-01
-7.8003E-01
-7.1411E-01
-7.6477E-01
-8.3252E-01
-8.3008E-01
-7.2754E-01
-6.8176E-01
-8.0933E-01
-8.5327E-01
-8.3496E-01
-7.7820E-01
-7.3242E-01
-8.3191E-01
-8.9478E-01
-8.3252E-01
-7.4768E-01
-7.5867E-01
-8.5938E-01
-8.9355E-01
-8.5144E-01
-7.6904E-01
-7.5867E-01
-8.5693E-01
-8.4534E-01
-7.8979E-01
-7.6843E-01
-8.0017E-01
-8.9600E-01
-8.8867E-01
-8.2886E-01
-7.6416E-01
-8.1482E-01
-8.5510E-01
-8.5938E-01
-8.3618E-01
-7.9956E-01
-8.5693E-01
-9.4727E-01
-8.9478E-01
-7.7454E-01
-8.3679E-01
-9.6313E-01
-8.9050E-01
-6.7078E-01
-4.2847E-01
-3.0579E-01
-2.7710E-01
-2.9480E-01
-2.3560E-01
-6.3477E-02
 2.5635E-02
 5.6763E-02
 9.8877E-02
 9.7656E-02
 3.6621E-02
-9.7046E-02
-1.4587E-01
-1.3367E-01
-4.7607E-02
-4.2114E-02
-3.1616E-01
-5.9692E-01
-6.7688E-01
-6.3965E-01
-7.0557E-01
-8.7646E-01
-9.5886E-01
-9.0576E-01
-7.8613E-01
-7.9041E-01
-9.0698E-01
-9.2712E-01
-8.6609E-01
-8.2153E-01
-8.9111E-01
-1.0059E+00
-1.0260E+00
-1.1450E+00
-1.5576E+00
-2.0013E+00
-1.9409E+00
-1.0077E+00
 7.0496E-01
 3.4064E+00
 4.9994E+00
 4.9994E+00
 4.9994E+00
 4.9994E+00
 4.9994E+00
 4.0076E+00
-7.2021E-02
-2.2388E+00
-3.0829E+00
-3.4650E+00
-3.7408E+00
-3.5590E+00
-2.9486E+00
-2.3285E+00
-1.8713E+00
-1.6040E+00
-1.5161E+00
-1.4288E+00
-1.3403E+00
-1.3757E+00
-1.4020E+00
-1.3220E+00
-1.2262E+00
-1.1804E+00
-1.2122E+00
-1.2097E+00
-1.1548E+00
-1.0980E+00
-1.0858E+00
-1.1780E+00
-1.2512E+00
-1.1548E+00
-9.8633E-01
-9.9548E-01
-1.0632E+00
-9.8755E-01
-8.7891E-01
-7.5073E-01
-7.0068E-01
-7.4707E-01
-7.2144E-01
-6.0486E-01
-4.9133E-01
-4.4495E-01
-4.2786E-01
-3.6072E-01
-1.7700E-01
-7.3242E-03
 5.0659E-02
 1.7700E-01
 3.4485E-01
 5.4626E-01
 7.3120E-01
 7.8735E-01
 8.9111E-01
 1.0535E+00
 1.2097E+00
 1.3092E+00
 1.3666E+00
 1.4166E+00
 1.5057E+00
 1.6064E+00
 1.5338E+00
 1.3824E+00
 1.2866E+00
 1.2048E+00
 1.1426E+00
 9.6069E-01
 6.8970E-01
 4.9622E-01
 3.9673E-01
 2.6184E-01
-2.8076E-02
-2.8259E-01
-4.0955E-01
-4.7607E-01
-5.4932E-01
-7.1045E-01
-7.8491E-01
-7.3608E-01
-7.0923E-01
-7.4829E-01
-8.0322E-01
-8.2825E-01
-8.0017E-01
-7.5500E-01
-8.1970E-01
-9.0515E-01
-9.2529E-01
-8.4412E-01
-7.3914E-01
-7.6843E-01
-8.5449E-01
-8.4412E-01
-7.7942E-01
-7.5439E-01
-8.0566E-01
-8.1482E-01
-8.3069E-01
-8.0444E-01
-7.8613E-01
-8.5205E-01
-9.2163E-01
-9.4116E-01
-8.3862E-01
-7.9712E-01
-8.8196E-01
-8.9600E-01
-8.0383E-01
-7.0923E-01
-7.1655E-01
-7.8918E-01
-7.7271E-01
-6.8604E-01
-6.7078E-01
-7.6904E-01
-8.1299E-01
-7.8613E-01
-7.2571E-01
-7.0374E-01
-7.6538E-01
-8.4045E-01
-8.8440E-01
-8.3984E-01
-7.9712E-01
-8.8074E-01
-9.3567E-01
-9.0210E-01
-8.1421E-01
-8.1421E-01
-8.9111E-01
-8.9478E-01
-8.2458E-01
-6.9458E-01
-7.7515E-01
-9.5459E-01
-9.4727E-01
-7.9773E-01
-7.3486E-01
-8.2397E-01
-9.0271E-01
-8.8013E-01
-7.6660E-01
-6.8298E-01
-7.3364E-01
-7.7881E-01
-7.6416E-01
-7.0984E-01
-6.9885E-01
-7.8491E-01
-7.5134E-01
-5.6458E-01
-3.9429E-01
-3.4119E-01
-3.5156E-01
-3.4973E-01
-3.0334E-01
-2.2888E-01
-1.6541E-01
-1.1414E-01
-2.3193E-02
 4.8828E-02
 4.8828E-03
-1.2451E-01
-1.5015E-01
-9.0332E-02
-2.4414E-02
-2.6245E-02
-1.6357E-01
-3.5522E-01
-5.1636E-01
-6.0791E-01
-6.6284E-01
-8.5571E-01
-9.7351E-01
-9.1370E-01
-8.4900E-01
-9.0820E-01
-1.0052E+00
-1.0199E+00
-9.6802E-01
-8.8257E-01
-9.0698E-01
-1.0321E+00
-1.0303E+00
-1.0486E+00
-1.3422E+00
-1.8188E+00
-1.9763E+00
-1.3123E+00
 1.0315E-01
 2.3181E+00
 4.9213E+00
 4.9994E+00
 4.9994E+00
 4.9994E+00
 4.9994E+00
 4.9597E+00
 1.3934E+00
-1.5894E+00
-2.8857E+00
-3.2996E+00
-3.5974E+00
-3.5858E+00
-3.0524E+00
-2.4469E+00
-1.9269E+00
-1.5472E+00
-1.4240E+00
-1.3531E+00
-1.2396E+00
-1.2604E+00
-1.3092E+00
-1.3031E+00
-1.1823E+00
-1.1041E+00
-1.1853E+00
-1.2164E+00
-1.1401E+00
-1.0217E+00
-9.6069E-01
-1.0272E+00
-1.0229E+00
-9.3018E-01
-8.0017E-01
-7.3364E-01
-7.8369E-01
-7.9834E-01
-7.4585E-01
-6.3965E-01
-6.0608E-01
-6.4819E-01
-5.8472E-01
-4.2053E-01
-3.2043E-01
-3.4119E-01
-3.2593E-01
-2.3804E-01
-5.6763E-02
 1.1169E-01
 1.7822E-01
 1.9775E-01
 3.3508E-01
 6.6040E-01
 8.5938E-01
 8.7280E-01
 1.0248E+00
 1.2616E+00
 1.4459E+00
 1.4752E+00
 1.4429E+00
 1.4844E+00
 1.5967E+00
 1.7407E+00
 1.7499E+00
 1.6479E+00
 1.6351E+00
 1.5808E+00
 1.4471E+00
 1.2054E+00
 9.6741E-01
 8.0505E-01
 6.8665E-01
 5.2917E-01
 2.7771E-01
 9.1553E-03
-1.5564E-01
-1.8250E-01
-2.3132E-01
-3.9063E-01
-5.2429E-01
-5.3345E-01
-5.1636E-01
-5.4749E-01
-6.3477E-01
-6.6162E-01
-5.5786E-01
-4.2786E-01
-3.6316E-01
-4.4495E-01
-5.2368E-01
-4.8157E-01
-4.1931E-01
-4.8584E-01
-6.3354E-01
-6.5247E-01
-5.5054E-01
-4.9255E-01
-5.2979E-01
-5.2734E-01
-4.7058E-01
-4.2969E-01
-4.2419E-01
-5.0720E-01
-5.6519E-01
-5.5176E-01
-5.1514E-01
-5.1819E-01
-6.2805E-01
-6.5186E-01
-5.2490E-01
-4.2419E-01
-4.7058E-01
-5.5359E-01
-5.4565E-01
-5.2795E-01
-5.0293E-01
-5.0781E-01
-5.5786E-01
-5.7556E-01
-5.4810E-01
-4.5959E-01
-4.9500E-01
-5.8777E-01
-5.8228E-01
-4.9866E-01
-4.9988E-01
-6.0486E-01
-5.8960E-01
-5.2856E-01
-5.0842E-01
-5.1575E-01
-6.0059E-01
-6.0242E-01
-5.7617E-01
-4.7302E-01
-4.6570E-01
-5.9082E-01
-6.0669E-01
-4.6021E-01
-3.4485E-01
-3.8513E-01
-4.3945E-01
-4.1870E-01
-2.9846E-01
-1.4282E-01
-9.5215E-02
-5.7983E-02
-4.5776E-02
-1.8311E-02
 1.0254E-01
 1.6113E-01
 2.0142E-01
 3.1494E-01
 4.0100E-01
 3.6804E-01
 2.4597E-01
 2.0569E-01
 2.4597E-01
 3.4302E-01
 3.4668E-01
 1.2146E-01
-1.6235E-01
-2.5269E-01
-2.8381E-01
-4.6631E-01
-6.6345E-01
-7.1899E-01
-6.6528E-01
-6.0547E-01
-6.9885E-01
-8.1848E-01
-8.2397E-01
-7.1899E-01
-6.1951E-01
-6.6467E-01
-7.1167E-01
-7.2632E-01
-8.0200E-01
-1.1865E+00
-1.6919E+00
-1.7749E+00
-1.0297E+00
 4.6448E-01
 2.7863E+00
 4.9994E+00
 4.9994E+00
 4.9994E+00
 4.9994E+00
 4.9994E+00
 4.6448E+00
 4.9133E-01
-2.1796E+00
-3.1549E+00
-3.5645E+00
-3.7701E+00
-3.5883E+00
-3.0908E+00
-2.5781E+00
-2.2119E+00
-1.7572E+00
-1.4343E+00
-1.2915E+00
-1.2732E+00
-1.3794E+00
-1.3660E+00
-1.1993E+00
-1.0242E+00
-9.8694E-01
-1.1096E+00
-1.1578E+00
-1.0425E+00
-9.0576E-01
-8.9172E-01
-9.7229E-01
-9.6313E-01
-7.8369E-01
-6.5796E-01
-7.2937E-01
-7.8186E-01
-7.0801E-01
-5.9998E-01
-5.4749E-01
-5.7495E-01
-4.9255E-01
-4.2542E-01
-3.3020E-01
-2.6978E-01
-2.9053E-01
-2.4841E-01
-1.6541E-01
 3.0518E-03
 1.9775E-01
 3.0762E-01
 3.9856E-01
 5.9631E-01
 7.9102E-01
 8.6975E-01
 9.6741E-01
 1.1237E+00
 1.3293E+00
 1.5411E+00
 1.5802E+00
 1.5643E+00
 1.6705E+00
 1.8213E+00
 1.8616E+00
 1.7676E+00
 1.7194E+00
 1.6815E+00
 1.6931E+00
 1.5814E+00
 1.2738E+00
 1.0132E+00
 8.9844E-01
 8.2458E-01
 6.5247E-01
 3.7781E-01
 1.5869E-01
 4.4556E-02
-1.4648E-02
-1.8494E-01
-3.6987E-01
-4.2236E-01
-3.6621E-01
-3.3630E-01
-4.8340E-01
-5.6519E-01
-5.1086E-01
-4.5288E-01
-4.1687E-01
-5.1147E-01
-5.5176E-01
-5.1636E-01
-4.4006E-01
-3.7781E-01
-4.8706E-01
-6.3599E-01
-5.8105E-01
-5.0293E-01
-4.9744E-01
-5.5908E-01
-5.8044E-01
-4.7424E-01
-3.7109E-01
-4.2664E-01
-5.3467E-01
-5.9998E-01
-5.4016E-01
-3.7598E-01
-3.6804E-01
-4.8889E-01
-5.1392E-01
-4.1138E-01
-3.7476E-01
-4.8950E-01
-5.3833E-01
-5.2185E-01
-4.3762E-01
-4.1565E-01
-5.6396E-01
-7.0618E-01
-7.4890E-01
-5.8716E-01
-4.8828E-01
-5.7495E-01
-6.3965E-01
-5.6030E-01
-4.7668E-01
-5.2917E-01
-6.4087E-01
-6.4880E-01
-5.7129E-01
-4.8157E-01
-5.0964E-01
-5.7129E-01
-5.9204E-01
-5.3528E-01
-4.7119E-01
-4.6509E-01
-4.0955E-01
-3.5767E-01
-2.5085E-01
-1.2512E-01
-1.7883E-01
-1.7395E-01
 1.7090E-02
 2.2949E-01
 2.9480E-01
 2.1057E-01
 1.0681E-01
 1.3245E-01
 3.1799E-01
 3.0457E-01
 1.4221E-01
 7.9956E-02
 4.3335E-02
-2.7466E-02
-2.3865E-01
-4.4434E-01
-5.0293E-01
-5.4626E-01
-5.8594E-01
-6.8420E-01
-7.6538E-01
-7.4890E-01
-6.5857E-01
-6.2317E-01
-7.2327E-01
-7.8186E-01
-7.6111E-01
-6.7261E-01
-6.3721E-01
-7.7148E-01
-1.0364E+00
-1.4496E+00
-1.6901E+00
-1.3446E+00
-3.2471E-01
 1.5149E+00
 4.3976E+00
 4.9994E+00
 4.9994E+00
 4.9994E+00
 4.9994E+00
 4.9994E+00
 3.2385E+00
-1.1005E+00
-2.8729E+00
-3.3728E+00
-3.4955E+00
-3.4546E+00
-3.2379E+00
-2.7704E+00
-2.1954E+00
-1.5674E+00
-1.1963E+00
-1.2207E+00
-1.2109E+00
-1.0913E+00
-1.0223E+00
-1.1096E+00
-1.1200E+00
-1.0052E+00
-8.9966E-01
-8.0566E-01
-8.2153E-01
-8.8928E-01
-8.4717E-01
-7.4402E-01
-6.3599E-01
-6.7871E-01
-7.2205E-01
-6.0242E-01
-4.6936E-01
-4.4800E-01
-4.9683E-01
-5.1819E-01
-4.8096E-01
-3.4851E-01
-2.5024E-01
-2.6062E-01
-2.1362E-01
-8.4229E-02
 5.7983E-02
 1.4404E-01
 1.6907E-01
 2.3621E-01
 3.9978E-01
 5.9021E-01
 6.8604E-01
 7.9102E-01
 9.1614E-01
 1.0785E+00
 1.2933E+00
 1.3556E+00
 1.3788E+00
 1.5265E+00
 1.7236E+00
 1.8475E+00
 1.8671E+00
 1.8445E+00
 1.8549E+00
 1.8469E+00
 1.8115E+00
 1.6333E+00
 1.3971E+00
 1.2848E+00
 1.2512E+00
 1.0388E+00
 7.4280E-01
 5.2429E-01
 4.1382E-01
 3.3630E-01
 1.1353E-01
-1.4404E-01
-2.7527E-01
-3.0579E-01
-2.6917E-01
-3.3936E-01
-4.3091E-01
-3.7842E-01
-3.2471E-01
-3.7170E-01
-4.5044E-01
-4.7119E-01
-4.4617E-01
-3.7903E-01
-3.7964E-01
-4.6509E-01
-5.2979E-01
-4.1626E-01
-2.7832E-01
-3.2837E-01
-4.5349E-01
-4.9377E-01
-4.6509E-01
-3.8086E-01
-3.5339E-01
-3.9856E-01
-4.0344E-01
-3.6743E-01
-3.0518E-01
-3.5217E-01
-4.7607E-01
-5.0415E-01
-3.8940E-01
-3.2410E-01
-3.9246E-01
-4.4067E-01
-3.6621E-01
-2.6855E-01
-3.0090E-01
-3.8635E-01
-4.0466E-01
-3.5522E-01
-3.1128E-01
-3.6926E-01
-4.3518E-01
-4.5288E-01
-3.9978E-01
-3.5645E-01
-4.5105E-01
-4.8767E-01
-4.8157E-01
-4.3945E-01
-3.6194E-01
-4.0649E-01
-4.3091E-01
-2.8931E-01
-1.4099E-01
-5.1270E-02
-1.3428E-02
 4.2725E-03
-2.4414E-03
 2.6855E-02
 1.2512E-01
 1.7151E-01
 2.3315E-01
 3.3386E-01
 3.7781E-01
 3.3325E-01
 3.1616E-01
 2.8625E-01
 2.2583E-01
 2.6062E-01
 1.5015E-01
-1.5259E-01
-3.6072E-01
-4.5471E-01
-4.7302E-01
-5.9021E-01
-7.5012E-01
-7.2754E-01
-6.0303E-01
-5.5115E-01
-6.7566E-01
-7.7026E-01
-7.3181E-01
-6.8970E-01
-7.0068E-01
-8.1787E-01
-8.6914E-01
-8.4473E-01
-9.6863E-01
-1.4142E+00
-1.8256E+00
-1.6034E+00
-5.0110E-01
 1.3806E+00
 4.1388E+00
 4.9994E+00
 4.9994E+00
 4.9994E+00
 4.9994E+00
 4.9994E+00
 3.7140E+00
-5.4565E-01
-2.4036E+00
-3.1049E+00
-3.5516E+00
-3.6731E+00
-3.2458E+00
-2.5934E+00
-2.0520E+00
-1.6339E+00
-1.3641E+00
-1.2817E+00
-1.2189E+00
-1.1908E+00
-1.1682E+00
-1.1639E+00
-1.1694E+00
-1.0577E+00
-1.0083E+00
-1.0663E+00
-1.0406E+00
-9.1614E-01
-7.9834E-01
-8.5571E-01
-9.3567E-01
-8.3740E-01
-6.8054E-01
-6.2866E-01
-6.7078E-01
-7.0496E-01
-6.9397E-01
-6.1096E-01
-4.7729E-01
-5.1208E-01
-5.2490E-01
-4.4922E-01
-3.6743E-01
-2.7771E-01
-2.3926E-01
-1.6968E-01
-5.4932E-03
 1.7029E-01
 2.2888E-01
 2.2644E-01
 3.7476E-01
 6.1951E-01
 8.3313E-01
 9.2590E-01
 9.6069E-01
 1.1060E+00
 1.2701E+00
 1.3806E+00
 1.4355E+00
 1.4703E+00
 1.5460E+00
 1.6071E+00
 1.6199E+00
 1.5234E+00
 1.3361E+00
 1.2366E+00
 1.2238E+00
 1.1096E+00
 8.2642E-01
 6.1646E-01
 4.6570E-01
 3.1250E-01
 5.0049E-02
-2.3865E-01
-4.1931E-01
-5.1147E-01
-5.6946E-01
-7.7454E-01
-9.7961E-01
-1.0101E+00
-9.7656E-01
-9.8083E-01
-1.0571E+00
-1.1371E+00
-1.1432E+00
-1.1029E+00
-1.0345E+00
-1.1041E+00
-1.1798E+00
-1.1658E+00
-1.0950E+00
-1.1047E+00
-1.1682E+00
-1.1957E+00
-1.1444E+00
-1.0754E+00
-1.1078E+00
-1.1829E+00
-1.2170E+00
-1.1761E+00
-1.1438E+00
-1.2360E+00
-1.2982E+00
-1.2567E+00
-1.1609E+00
-1.1401E+00
-1.2305E+00
-1.2769E+00
-1.2323E+00
-1.1249E+00
-1.0663E+00
-1.1365E+00
-1.1163E+00
-1.1047E+00
-1.1078E+00
-1.1084E+00
-1.1542E+00
-1.1365E+00
-1.0651E+00
-1.0345E+00
-1.0999E+00
-1.2067E+00
-1.2244E+00
-1.1591E+00
-1.0901E+00
-1.1823E+00
-1.2476E+00
-1.2097E+00
-1.1298E+00
-1.0175E+00
-9.9731E-01
-9.3262E-01
-8.0688E-01
-7.2632E-01
-7.2998E-01
-7.5623E-01
-6.6467E-01
-5.0049E-01
-3.6987E-01
-4.2236E-01
-6.1157E-01
-6.6772E-01
-5.7495E-01
-5.0903E-01
-6.3049E-01
-8.0627E-01
-9.0027E-01
-9.5581E-01
-1.1285E+00
-1.3660E+00
-1.4941E+00
-1.5479E+00
-1.5656E+00
-1.5570E+00
-1.6473E+00
-1.7102E+00
-1.6571E+00
-1.5686E+00
-1.5234E+00
-1.5997E+00
-1.6919E+00
-1.7157E+00
-1.6644E+00
-1.7780E+00
-2.1967E+00
-2.7197E+00
-2.8241E+00
-2.0972E+00
-7.0313E-01
 1.4783E+00
 4.5294E+00
 4.9994E+00
 4.9994E+00
 4.9994E+00
 4.9994E+00
 4.6124E+00
 8.4045E-01
-2.2937E+00
-3.7421E+00
-4.2133E+00
-4.4318E+00
-4.2999E+00
-3.7817E+00
-3.3038E+00
-2.8589E+00
-2.4127E+00
-2.2571E+00
-2.2668E+00
-2.3505E+00
-2.3969E+00
-2.2571E+00
-2.1045E+00
-2.1216E+00
-2.1863E+00
-2.1417E+00
-2.0795E+00
-2.0300E+00
-2.0160E+00
-2.0728E+00
-2.0850E+00
-1.9849E+00
-1.9128E+00
-2.0032E+00
-2.0428E+00
-1.9623E+00
-1.8359E+00
-1.7902E+00
-1.8597E+00
-1.8872E+00
-1.8610E+00
-1.7468E+00
-1.6919E+00
-1.6974E+00
-1.6400E+00
-1.5216E+00
-1.4160E+00
-1.3617E+00
-1.3220E+00
-1.2524E+00
-1.1658E+00
-9.9670E-01
-8.9905E-01
-8.8501E-01
-7.9468E-01
-5.9875E-01
-4.4006E-01
-4.3945E-01
-3.9368E-01
-2.9236E-01
-1.7700E-01
-6.6528E-02
-8.4229E-02
-1.8311E-01
-2.0691E-01
-2.9663E-01
-4.8950E-01
-7.0618E-01
-9.2590E-01
-1.1450E+00
-1.3361E+00
-1.5668E+00
-1.8713E+00
-2.0868E+00
-2.1960E+00
-2.3065E+00
-2.4847E+00
-2.6752E+00
-2.7826E+00
-2.8168E+00
-2.8418E+00
-2.9321E+00
-3.0591E+00
-3.0835E+00
-2.9999E+00
-2.9755E+00
-3.0981E+00
-3.2172E+00
-3.1738E+00
-3.1329E+00
-3.1897E+00
-3.3185E+00
-3.4015E+00
-3.4045E+00
-3.3563E+00
-3.3545E+00
-3.4680E+00
-3.4998E+00
-3.4485E+00
-3.3887E+00
-3.5071E+00
-3.6292E+00
-3.6212E+00
-3.5742E+00
-3.5791E+00
-3.7103E+00
-3.8226E+00
-3.8232E+00
-3.7341E+00
-3.7012E+00
-3.8190E+00
-3.8910E+00
-3.8947E+00
-3.8312E+00
-3.7671E+00
-3.8599E+00
-3.9771E+00
-3.9441E+00
-3.8861E+00
-3.9160E+00
-4.0387E+00
-4.0674E+00
-4.0356E+00
-4.0289E+00
-4.0625E+00
-4.1742E+00
-4.2078E+00
-4.1779E+00
-4.1168E+00
-4.0802E+00
-4.0918E+00
-3.9594E+00
-3.7866E+00
-3.7445E+00
-3.8959E+00
-3.9716E+00
-3.8409E+00
-3.6499E+00
-3.5748E+00
-3.6981E+00
-3.9130E+00
-3.9941E+00
-3.8867E+00
-3.9160E+00
-4.0649E+00
-4.1339E+00
-4.2279E+00
-4.3646E+00
-4.5923E+00
-4.8425E+00
-4.9420E+00
-4.9371E+00
-4.9817E+00
-5.0000E+00
-5.0000E+00
-5.0000E+00
-5.0000E+00
-5.0000E+00
-5.0000E+00
-5.0000E+00
-5.0000E+00
-5.0000E+00
-5.0000E+00
-5.0000E+00
-5.0000E+00
-5.0000E+00
-5.0000E+00
-5.0000E+00
-4.7809E+00
-2.7271E+00
 6.1584E-01
 4.2871E+00
 4.9994E+00
 4.9994E+00
 4.9994E+00
 1.6620E+00
-2.5232E+00
-5.0000E+00
-5.0000E+00
-5.0000E+00
-5.0000E+00
-5.0000E+00
-5.0000E+00
-5.0000E+00
-5.0000E+00
-5.0000E+00
-5.0000E+00
-5.0000E+00
-5.0000E+00
-5.0000E+00
-5.0000E+00
-5.0000E+00
-5.0000E+00
-5.0000E+00
-5.0000E+00
-5.0000E+00
-5.0000E+00
-5.0000E+00
-5.0000E+00
-5.0000E+00
-5.0000E+00
-5.0000E+00
-5.0000E+00
-5.0000E+00
-5.0000E+00
-5.0000E+00
-5.0000E+00
-5.0000E+00
-5.0000E+00
-5.0000E+00
-5.0000E+00
-5.0000E+00
-5.0000E+00
-5.0000E+00
-5.0000E+00
-5.0000E+00
-5.0000E+00
-5.0000E+00
-5.0000E+00
-5.0000E+00
-5.0000E+00
-5.0000E+00
-4.9115E+00
-4.7015E+00
-4.5264E+00
-4.4629E+00
-4.4525E+00
-4.3610E+00
-4.2047E+00
-4.0833E+00
-4.1132E+00
-4.1852E+00
-4.1223E+00
-4.0778E+00
-4.1748E+00
-4.3506E+00
-4.5465E+00
-4.7412E+00
-4.9176E+00
-5.0000E+00
-5.0000E+00
-5.0000E+00
-5.0000E+00
-5.0000E+00
-5.0000E+00
-5.0000E+00
-5.0000E+00
-5.0000E+00
-5.0000E+00
-5.0000E+00
-5.0000E+00
-5.0000E+00
-5.0000E+00
-5.0000E+00
-5.0000E+00
-5.0000E+00
-5.0000E+00
-5.0000E+00
-5.0000E+00
-5.0000E+00
-5.0000E+00
-5.0000E+00
-5.0000E+00
-5.0000E+00
-5.0000E+00
-5.0000E+00
-5.0000E+00
-5.0000E+00
-5.0000E+00
-5.0000E+00
-5.0000E+00
-5.0000E+00
-5.0000E+00
-5.0000E+00
-5.0000E+00
-5.0000E+00
-5.0000E+00
-5.0000E+00
-5.0000E+00
-5.0000E+00
-5.0000E+00
-5.0000E+00
-5.0000E+00
-5.0000E+00
-5.0000E+00
-5.0000E+00
-5.0000E+00
-5.0000E+00
-5.0000E+00
-5.0000E+00
-5.0000E+00
-5.0000E+00
-5.0000E+00
-5.0000E+00
-5.0000E+00
-5.0000E+00
-5.0000E+00
-5.0000E+00
-5.0000E+00
-5.0000E+00
-5.0000E+00
-5.0000E+00
-5.0000E+00
-5.0000E+00
-5.0000E+00
-5.0000E+00
-5.0000E+00
-5.0000E+00
-5.0000E+00
-5.0000E+00
-5.0000E+00
-5.0000E+00
-5.0000E+00
-5.0000E+00
-5.0000E+00
-5.0000E+00
-5.0000E+00
-5.0000E+00
-5.0000E+00
-5.0000E+00
-5.0000E+00
-5.0000E+00
-5.0000E+00
-5.0000E+00
-5.0000E+00
-5.0000E+00
-5.0000E+00
-5.0000E+00
-5.0000E+00
-5.0000E+00
-5.0000E+00
-5.0000E+00
-5.0000E+00
-5.0000E+00
-5.0000E+00
-5.0000E+00
-5.0000E+00
-5.0000E+00
-3.2184E+00
 3.9368E-01
 3.9893E+00
 4.9994E+00
 4.9994E+00
 3.8550E+00
-6.0059E-01
-4.5502E+00
-5.0000E+00
-5.0000E+00
-5.0000E+00
-5.0000E+00
-5.0000E+00
-5.0000E+00
-5.0000E+00
-5.0000E+00
-5.0000E+00
-5.0000E+00
-5.0000E+00
-5.0000E+00
-5.0000E+00
-5.0000E+00
-5.0000E+00
-5.0000E+00
-5.0000E+00
-5.0000E+00
-5.0000E+00
-5.0000E+00
-5.0000E+00
-5.0000E+00
-5.0000E+00
-5.0000E+00
-5.0000E+00
-5.0000E+00
-5.0000E+00
-5.0000E+00
-5.0000E+00
-5.0000E+00
-5.0000E+00
-5.0000E+00
-5.0000E+00
-5.0000E+00
-5.0000E+00
-5.0000E+00
-5.0000E+00
-5.0000E+00
-5.0000E+00
-5.0000E+00
-4.9573E+00
-4.7888E+00
-4.6967E+00
-4.6191E+00
-4.4806E+00
-4.2145E+00
-3.9911E+00
-3.9392E+00
-3.9026E+00
-3.7592E+00
-3.5480E+00
-3.3264E+00
-3.2568E+00
-3.2684E+00
-3.2483E+00
-3.1726E+00
-3.1757E+00
-3.3575E+00
-3.5144E+00
-3.6133E+00
-3.6560E+00
-3.8019E+00
-4.1010E+00
-4.3848E+00
-4.5331E+00
-4.6106E+00
-4.7559E+00
-4.9121E+00
-4.9768E+00
-5.0000E+00
-4.9792E+00
-5.0000E+00
-5.0000E+00
-5.0000E+00
-5.0000E+00
-5.0000E+00
-5.0000E+00
-5.0000E+00
-5.0000E+00
-5.0000E+00
-4.9762E+00
-5.0000E+00
-5.0000E+00
-4.9396E+00
-4.8456E+00
-4.7754E+00
-4.8370E+00
-4.9335E+00
-4.8871E+00
-4.7430E+00
-4.7144E+00
-4.7900E+00
-4.8383E+00
-4.8138E+00
-4.7461E+00
-4.6979E+00
-4.7058E+00
-4.6973E+00
-4.5789E+00
-4.4952E+00
-4.5410E+00
-4.6405E+00
-4.6204E+00
-4.4617E+00
-4.3665E+00
-4.4080E+00
-4.4141E+00
-4.4165E+00
-4.3585E+00
-4.2828E+00
-4.3140E+00
-4.3201E+00
-4.2706E+00
-4.1425E+00
-4.1052E+00
-4.1931E+00
-4.2462E+00
-4.1980E+00
-4.0607E+00
-4.0686E+00
-4.1327E+00
-4.0479E+00
-3.8397E+00
-3.7201E+00
-3.6963E+00
-3.6005E+00
-3.5156E+00
-3.3832E+00
-3.1903E+00
-3.1226E+00
-3.0804E+00
-2.9730E+00
-2.9346E+00
-3.0200E+00
-3.1329E+00
-3.1152E+00
-3.0420E+00
-2.9462E+00
-2.9565E+00
-3.2159E+00
-3.4821E+00
-3.4949E+00
-3.4326E+00
-3.5541E+00
-3.7421E+00
-3.7640E+00
-3.6456E+00
-3.5205E+00
-3.5315E+00
-3.5980E+00
-3.5986E+00
-3.4894E+00
-3.4052E+00
-3.4601E+00
-3.4686E+00
-3.4143E+00
-3.5126E+00
-3.9435E+00
-4.3958E+00
-4.2792E+00
-3.3099E+00
-1.4807E+00
 1.2933E+00
 4.6033E+00
 4.9994E+00
 4.9994E+00
 4.9994E+00
 4.9994E+00
 1.8829E+00
-2.3682E+00
-4.8480E+00
-5.0000E+00
-5.0000E+00
-5.0000E+00
-5.0000E+00
-4.8816E+00
-4.2798E+00
-3.8098E+00
-3.4235E+00
-3.2684E+00
-3.1934E+00
-3.1183E+00
-3.1305E+00
-3.1305E+00
-3.0139E+00
-2.7765E+00
-2.6758E+00
-2.7118E+00
-2.7252E+00
-2.7185E+00
-2.5800E+00
-2.5183E+00
-2.5256E+00
-2.4634E+00
-2.3004E+00
-2.2052E+00
-2.2723E+00
-2.3431E+00
-2.2375E+00
-2.0636E+00
-1.9543E+00
-1.9543E+00
-1.9916E+00
-1.9299E+00
-1.7328E+00
-1.6010E+00
-1.5747E+00
-1.4661E+00
-1.2732E+00
-1.1096E+00
-1.0333E+00
-9.8145E-01
-9.0515E-01
-6.8481E-01
-4.1321E-01
-3.0334E-01
-1.8616E-01
-3.0518E-03
 1.8799E-01
 3.5645E-01
 3.7476E-01
 4.4861E-01
 5.9875E-01
 7.3547E-01
 7.9102E-01
 7.1777E-01
 5.9082E-01
 5.1025E-01
 5.1819E-01
 3.9856E-01
 1.0010E-01
-1.6052E-01
-2.9785E-01
-3.3508E-01
-4.3335E-01
-6.7200E-01
-8.7524E-01
-9.0942E-01
-8.4534E-01
-9.2163E-01
-1.0529E+00
-1.1548E+00
-1.1517E+00
-1.0822E+00
-1.1304E+00
-1.2244E+00
-1.1682E+00
-1.0303E+00
-9.7961E-01
-1.0504E+00
-1.0510E+00
-9.6924E-01
-8.5449E-01
-7.8308E-01
-8.9417E-01
-9.6558E-01
-8.6304E-01
-6.9763E-01
-6.8604E-01
-7.5989E-01
-7.7637E-01
-6.6284E-01
-5.0964E-01
-4.8096E-01
-4.9561E-01
-4.7729E-01
-4.2542E-01
-3.7842E-01
-4.1748E-01
-4.7974E-01
-4.4006E-01
-2.5208E-01
-1.3306E-01
-2.3621E-01
-3.4668E-01
-3.1433E-01
-1.4526E-01
-8.9722E-02
-1.9897E-01
-2.6978E-01
-2.8076E-01
-1.4893E-01
-5.3101E-02
-1.4771E-01
-1.8677E-01
-8.0566E-02
 4.8218E-02
 4.5776E-02
-4.2725E-02
-3.1738E-02
 4.8218E-02
 6.6528E-02
 6.1646E-02
 1.7029E-01
 2.5513E-01
 4.6692E-01
 7.0496E-01
 6.1218E-01
 4.5288E-01
 5.4688E-01
 7.7820E-01
 9.5032E-01
 9.5154E-01
 8.7219E-01
 8.0566E-01
 9.0820E-01
 9.8877E-01
 8.5754E-01
 7.9163E-01
 8.4229E-01
 8.4229E-01
 6.3599E-01
 3.8574E-01
 2.8137E-01
 2.3926E-01
 1.8677E-01
 9.6436E-02
 4.1504E-02
 8.9722E-02
 2.0813E-01
 2.7283E-01
 2.2095E-01
 1.9043E-01
 2.1667E-01
 2.6611E-01
 3.0457E-01
 2.4170E-01
 2.2583E-02
-3.2959E-01
-5.6274E-01
-4.5410E-01
 3.8757E-01
 2.0648E+00
 4.5551E+00
 4.9994E+00
 4.9994E+00
 4.9994E+00
 4.9994E+00
 4.9994E+00
 4.9377E+00
 1.5918E+00
-1.2164E+00
-1.9977E+00
-2.1735E+00
-2.2491E+00
-1.9873E+00
-1.4630E+00
-8.4839E-01
-2.1240E-01
 1.7822E-01
 1.9775E-01
 1.5137E-01
 2.3315E-01
 3.9795E-01
 4.6265E-01
 4.2358E-01
 4.1931E-01
 4.9988E-01
 6.1218E-01
 6.8237E-01
 6.5247E-01
 6.6895E-01
 7.1899E-01
 7.5928E-01
 7.8552E-01
 8.2947E-01
 9.3994E-01
 1.0504E+00
 1.1536E+00
 1.1725E+00
 1.1401E+00
 1.2225E+00
 1.3971E+00
 1.4862E+00
 1.4362E+00
 1.4526E+00
 1.5833E+00
 1.7413E+00
 1.8518E+00
 1.8921E+00
 2.0264E+00
 2.2418E+00
 2.4609E+00
 2.5848E+00
 2.6172E+00
 2.7319E+00
 2.9669E+00
 3.2019E+00
 3.3173E+00
 3.3917E+00
 3.4845E+00
 3.6322E+00
 3.7610E+00
 3.7415E+00
 3.7201E+00
 3.8269E+00
 3.8715E+00
 3.8562E+00
 3.6761E+00
 3.4564E+00
 3.3478E+00
 3.2788E+00
 3.0927E+00
 2.7911E+00
 2.5623E+00
 2.4701E+00
 2.3914E+00
 2.2028E+00
 1.9916E+00
 1.8958E+00
 1.8188E+00
 1.8347E+00
 1.7578E+00
 1.6278E+00
 1.6229E+00
 1.7682E+00
 1.8475E+00
 1.7627E+00
 1.7120E+00
 1.7529E+00
 1.8585E+00
 1.9122E+00
 1.8451E+00
 1.8018E+00
 1.8256E+00
 1.9110E+00
 1.9501E+00
 1.8524E+00
 1.8048E+00
 1.8469E+00
 1.9470E+00
 1.9635E+00
 1.8549E+00
 1.8298E+00
 1.9275E+00
 2.0074E+00
 1.9153E+00
 1.7993E+00
 1.8408E+00
 1.9391E+00
 2.0245E+00
 1.9727E+00
 1.9446E+00
 2.0154E+00
 2.0880E+00
 2.1149E+00
 2.0850E+00
 2.0575E+00
 2.0996E+00
 2.1973E+00
 2.2150E+00
 2.1332E+00
 2.1002E+00
 2.1539E+00
 2.2522E+00
 2.2394E+00
 2.1692E+00
 2.1484E+00
 2.1826E+00
 2.2552E+00
 2.2052E+00
 2.1216E+00
 2.1490E+00
 2.2571E+00
 2.3163E+00
 2.2589E+00
 2.2327E+00
 2.2729E+00
 2.4390E+00
 2.6337E+00
 2.5873E+00
 2.5592E+00
 2.7112E+00
 2.8552E+00
 2.8082E+00
 2.7423E+00
 2.8619E+00
 3.0450E+00
 3.2111E+00
 3.2068E+00
 2.9828E+00
 2.9596E+00
 3.1134E+00
 3.1384E+00
 3.1073E+00
 3.0212E+00
 2.8778E+00
 2.7844E+00
 2.6581E+00
 2.4048E+00
 2.2546E+00
 2.1851E+00
 2.2253E+00
 2.2791E+00
 2.2162E+00
 2.2247E+00
 2.2693E+00
 2.3450E+00
 2.3413E+00
 2.2760E+00
 2.2260E+00
 2.1967E+00
 2.2437E+00
 2.1118E+00
 1.6949E+00
 1.3617E+00
 1.3562E+00
 2.0984E+00
 3.4857E+00
 4.9994E+00
 4.9994E+00
 4.9994E+00
 4.9994E+00
 4.9994E+00
 4.9994E+00
 4.9994E+00
 4.4769E+00
 1.5234E+00
 2.1667E-01
-1.2817E-01
-3.1128E-01
-1.0010E-01
 4.6082E-01
 9.0271E-01
 1.3910E+00
 1.8329E+00
 2.0074E+00
 1.9672E+00
 1.9073E+00
 1.9208E+00
 2.0056E+00
 2.1271E+00
 2.0923E+00
 2.0337E+00
 2.0892E+00
 2.2070E+00
 2.2943E+00
 2.2437E+00
 2.1704E+00
 2.2888E+00
 2.4292E+00
 2.4921E+00
 2.4384E+00
 2.3822E+00
 2.4597E+00
 2.6172E+00
 2.6904E+00
 2.6801E+00
 2.6868E+00
 2.7606E+00
 2.9181E+00
 2.9895E+00
 2.9602E+00
 3.0194E+00
 3.2098E+00
 3.3734E+00
 3.3734E+00
 3.3893E+00
 3.5156E+00
 3.6853E+00
 3.8159E+00
 3.8452E+00
 3.9673E+00
 4.1718E+00
 4.3756E+00
 4.5270E+00
 4.6094E+00
 4.6790E+00
 4.7687E+00
 4.9365E+00
 4.9994E+00
 4.9994E+00
 4.9994E+00
 4.9994E+00
 4.9994E+00
 4.9011E+00
 4.6521E+00
 4.4928E+00
 4.3811E+00
 4.2786E+00
 4.0472E+00
 3.7408E+00
 3.5370E+00
 3.4515E+00
 3.3643E+00
 3.1665E+00
 2.9980E+00
 2.9688E+00
 3.0121E+00
 2.9553E+00
 2.8485E+00
 2.7429E+00
 2.7563E+00
 2.8522E+00
 2.8418E+00
 2.7338E+00
 2.7374E+00
 2.8125E+00
 2.9321E+00
 2.9144E+00
 2.8149E+00
 2.7759E+00
 2.8210E+00
 2.9108E+00
 2.9004E+00
 2.7960E+00
 2.7380E+00
 2.8021E+00
 2.8601E+00
 2.8125E+00
 2.7496E+00
 2.7814E+00
 2.9004E+00
 2.9230E+00
 2.7435E+00
 2.6361E+00
 2.7271E+00
 2.8717E+00
 2.9230E+00
 2.8107E+00
 2.7808E+00
 2.8217E+00
 2.9456E+00
 3.0115E+00
 2.9022E+00
 2.9333E+00
 3.0676E+00
 3.1451E+00
 3.1238E+00
 3.0048E+00
 2.9346E+00
 2.9712E+00
 3.0475E+00
 3.0054E+00
 2.9211E+00
 2.9358E+00
 2.9865E+00
 2.9938E+00
 2.9596E+00
 2.9779E+00
 3.0048E+00
 3.0695E+00
 3.0804E+00
 2.9968E+00
 2.9901E+00
 3.0353E+00
 3.0853E+00
 3.0841E+00
 2.9657E+00
 2.8528E+00
 2.9102E+00
 3.0444E+00
 3.0109E+00
 2.9333E+00
 2.9529E+00
 2.9669E+00
 3.0096E+00
 2.9913E+00
 2.9608E+00
 3.0170E+00
 3.0627E+00
 3.0664E+00
 2.9730E+00
 2.9047E+00
 3.0835E+00
 3.2947E+00
 3.3246E+00
 3.3148E+00
 3.3801E+00
 3.4039E+00
 3.4882E+00
 3.6102E+00
 3.6548E+00
 3.7415E+00
 3.8452E+00
 3.8361E+00
 3.6566E+00
 3.5779E+00
 3.6340E+00
 3.6377E+00
 3.6725E+00
 3.5767E+00
 3.3728E+00
 3.2129E+00
 3.1012E+00
 3.0548E+00
 2.9297E+00
 2.7637E+00
 2.7100E+00
 2.7612E+00
 2.7795E+00
 2.6270E+00
 2.5586E+00
 2.6331E+00
 2.7667E+00
 2.8174E+00
 2.7350E+00
 2.6990E+00
 2.6770E+00
 2.4567E+00
 1.9849E+00
 1.6608E+00
 1.9946E+00
 3.1573E+00
 4.8175E+00
 4.9994E+00
 4.9994E+00
 4.9994E+00
 4.9994E+00
 4.9994E+00
 4.9994E+00
 4.9994E+00
 3.1061E+00
 1.1035E+00
 5.2124E-01
 1.5137E-01
-6.4087E-02
 3.1555E-01
 9.7046E-01
 1.4514E+00
 1.8420E+00
 2.0892E+00
 2.1741E+00
 2.2064E+00
 2.1484E+00
 2.1008E+00
 2.2192E+00
 2.3840E+00
 2.4915E+00
 2.4738E+00
 2.4066E+00
 2.4457E+00
 2.5342E+00
 2.5702E+00
 2.5043E+00
 2.4762E+00
 2.5818E+00
 2.7509E+00
 2.8186E+00
 2.7094E+00
 2.7325E+00
 2.8241E+00
 2.8729E+00
 2.8851E+00
 2.7942E+00
 2.7972E+00
 2.9541E+00
 3.0988E+00
 3.1464E+00
 3.1366E+00
 3.1970E+00
 3.3636E+00
 3.5394E+00
 3.6151E+00
 3.6438E+00
 3.7750E+00
 3.9948E+00
 4.1583E+00
 4.2114E+00
 4.3134E+00
 4.4891E+00
 4.6722E+00
 4.7778E+00
 4.8199E+00
 4.8767E+00
 4.9664E+00
 4.9994E+00
 4.9994E+00
 4.9994E+00
 4.9994E+00
 4.9078E+00
 4.8401E+00
 4.6863E+00
 4.4025E+00
 4.1760E+00
 4.0247E+00
 3.8708E+00
 3.6737E+00
 3.4717E+00
 3.3099E+00
 3.2245E+00
 3.0292E+00
 2.7997E+00
 2.7600E+00
 2.7667E+00
 2.7716E+00
 2.7631E+00
 2.6556E+00
 2.5873E+00
 2.6270E+00
 2.7039E+00
 2.6978E+00
 2.6123E+00
 2.5751E+00
 2.6196E+00
 2.7167E+00
 2.7039E+00
 2.5977E+00
 2.6001E+00
 2.6709E+00
 2.7112E+00
 2.6593E+00
 2.5916E+00
 2.6099E+00
 2.7148E+00
 2.6953E+00
 2.5757E+00
 2.5214E+00
 2.5482E+00
 2.6215E+00
 2.6031E+00
 2.4597E+00
 2.3615E+00
 2.3895E+00
 2.4921E+00
 2.5183E+00
 2.4353E+00
 2.3987E+00
 2.4475E+00
 2.5061E+00
 2.4561E+00
 2.3535E+00
 2.3584E+00
 2.3914E+00
 2.4463E+00
 2.4817E+00
 2.3853E+00
 2.3230E+00
 2.3798E+00
 2.4158E+00
 2.3346E+00
 2.2723E+00
 2.2980E+00
 2.3889E+00
 2.4396E+00
 2.3615E+00
 2.3120E+00
 2.3413E+00
 2.3859E+00
 2.3102E+00
 2.1753E+00
 2.1588E+00
 2.2784E+00
 2.3975E+00
 2.3761E+00
 2.2815E+00
 2.2156E+00
 2.2650E+00
 2.3486E+00
 2.3505E+00
 2.2632E+00
 2.2839E+00
 2.3322E+00
 2.3413E+00
 2.2675E+00
 2.2131E+00
 2.2607E+00
 2.3187E+00
 2.2925E+00
 2.2058E+00
 2.1869E+00
 2.2681E+00
 2.3798E+00
 2.4927E+00
 2.5018E+00
 2.5555E+00
 2.7057E+00
 2.8320E+00
 2.7795E+00
 2.6886E+00
 2.7747E+00
 3.0017E+00
 3.1195E+00
 3.0273E+00
 2.8406E+00
 2.7881E+00
 2.9089E+00
 2.9828E+00
 2.8809E+00
 2.7588E+00
 2.6874E+00
 2.5708E+00
 2.4176E+00
 2.2058E+00
 2.0117E+00
 1.9861E+00
 2.0917E+00
 2.0483E+00
 1.8604E+00
 1.7780E+00
 1.8262E+00
 1.8652E+00
 1.8158E+00
 1.7267E+00
 1.7078E+00
 1.7719E+00
 1.8365E+00
 1.6663E+00
 1.2598E+00
 9.5886E-01
 9.5581E-01
 1.6602E+00
 2.9688E+00
 4.8083E+00
 4.9994E+00
 4.9994E+00
 4.9994E+00
 4.9994E+00
 4.9994E+00
 4.9994E+00
 4.0479E+00
 1.2897E+00
-1.6479E-02
-5.3467E-01
-7.9651E-01
-6.7078E-01
-1.5320E-01
 2.5574E-01
 6.8909E-01
 1.1603E+00
 1.3397E+00
 1.2915E+00
 1.2524E+00
 1.3147E+00
 1.4612E+00
 1.5759E+00
 1.5021E+00
 1.4032E+00
 1.4490E+00
 1.6278E+00
 1.7371E+00
 1.6376E+00
 1.6174E+00
 1.6754E+00
 1.8054E+00
 1.8622E+00
 1.7645E+00
 1.7023E+00
 1.7523E+00
 1.8829E+00
 1.8695E+00
 1.7487E+00
 1.7615E+00
 1.8884E+00
 2.0184E+00
 2.0526E+00
 2.0581E+00
 2.1027E+00
 2.2229E+00
 2.3474E+00
 2.4359E+00
 2.4786E+00
 2.6215E+00
 2.7771E+00
 2.8888E+00
 2.9633E+00
 3.0859E+00
 3.2806E+00
 3.4918E+00
 3.5931E+00
 3.5858E+00
 3.6615E+00
 3.8641E+00
 4.0668E+00
 4.1138E+00
 4.0747E+00
 4.0826E+00
 4.1577E+00
 4.1595E+00
 3.9642E+00
 3.7396E+00
 3.5742E+00
 3.4644E+00
 3.3398E+00
 3.1042E+00
 2.8522E+00
 2.6611E+00
 2.5861E+00
 2.4512E+00
 2.1649E+00
 1.9598E+00
 1.8835E+00
 1.8518E+00
 1.8103E+00
 1.7462E+00
 1.7139E+00
 1.7572E+00
 1.7981E+00
 1.7865E+00
 1.7169E+00
 1.6321E+00
 1.7249E+00
 1.8481E+00
 1.7603E+00
 1.6803E+00
 1.7554E+00
 1.8463E+00
 1.8896E+00
 1.8176E+00
 1.7645E+00
 1.7889E+00
 1.8787E+00
 1.9104E+00
 1.7816E+00
 1.6547E+00
 1.6687E+00
 1.7621E+00
 1.7596E+00
 1.6791E+00
 1.6412E+00
 1.6785E+00
 1.7596E+00
 1.7889E+00
 1.7932E+00
 1.8079E+00
 1.7963E+00
 1.8616E+00
 1.9006E+00
 1.8365E+00
 1.7651E+00
 1.7950E+00
 1.8750E+00
 1.8713E+00
 1.8109E+00
 1.8237E+00
 1.8988E+00
 1.9238E+00
 1.7688E+00
 1.6675E+00
 1.7017E+00
 1.7224E+00
 1.6956E+00
 1.6040E+00
 1.5613E+00
 1.6595E+00
 1.7682E+00
 1.7657E+00
 1.6443E+00
 1.6016E+00
 1.7029E+00
 1.7914E+00
 1.7682E+00
 1.6956E+00
 1.6534E+00
 1.6840E+00
 1.7383E+00
 1.6846E+00
 1.5942E+00
 1.6461E+00
 1.7535E+00
 1.7676E+00
 1.6425E+00
 1.5479E+00
 1.5857E+00
 1.7596E+00
 1.8085E+00
 1.6858E+00
 1.7334E+00
 1.8951E+00
 2.0673E+00
 2.1759E+00
 2.1057E+00
 2.0123E+00
 2.1112E+00
 2.3297E+00
 2.4060E+00
 2.4042E+00
 2.3859E+00
 2.3425E+00
 2.3987E+00
 2.3511E+00
 2.1985E+00
 2.2119E+00
 2.2260E+00
 2.1381E+00
 1.9861E+00
 1.7810E+00
 1.6553E+00
 1.6193E+00
 1.4795E+00
 1.2817E+00
 1.2250E+00
 1.2793E+00
 1.3470E+00
 1.3257E+00
 1.2372E+00
 1.2036E+00
 1.2323E+00
 1.2988E+00
 1.2482E+00
 1.1395E+00
 1.0297E+00
 7.4707E-01
 4.1809E-01
 4.4800E-01
 1.2830E+00
 2.9065E+00
 4.9750E+00
 4.9994E+00
 4.9994E+00
 4.9994E+00
 4.9994E+00
 4.9994E+00
 4.9994E+00
 1.9324E+00
-4.0771E-01
-9.6313E-01
-1.2805E+00
-1.4856E+00
-1.4105E+00
-9.8999E-01
-3.7720E-01
 2.0874E-01
 6.1707E-01
 7.4036E-01
 7.3730E-01
 8.2275E-01
 9.1309E-01
 8.4351E-01
 7.9834E-01
 8.8623E-01
 9.8328E-01
 1.0168E+00
 9.3872E-01
 9.4482E-01
 1.0553E+00
 1.1652E+00
 1.1609E+00
 1.1011E+00
 1.0657E+00
 1.1121E+00
 1.2262E+00
 1.2140E+00
 1.1414E+00
 1.1810E+00
 1.3531E+00
 1.4844E+00
 1.4697E+00
 1.4105E+00
 1.4343E+00
 1.6034E+00
 1.7432E+00
 1.7719E+00
 1.7877E+00
 1.8787E+00
 2.0679E+00
 2.2058E+00
 2.2272E+00
 2.3102E+00
 2.4829E+00
 2.7472E+00
 2.8796E+00
 2.9327E+00
 3.0823E+00
 3.2440E+00
 3.3795E+00
 3.4515E+00
 3.4528E+00
 3.5150E+00
 3.6224E+00
 3.7244E+00
 3.6481E+00
 3.4344E+00
 3.2727E+00
 3.1824E+00
 3.0878E+00
 2.8156E+00
 2.5555E+00
 2.3718E+00
 2.2009E+00
 2.0563E+00
 1.8311E+00
 1.6290E+00
 1.5405E+00
 1.5167E+00
 1.4496E+00
 1.2677E+00
 1.1298E+00
 1.1053E+00
 1.1530E+00
 1.1127E+00
 1.0443E+00
 1.0260E+00
 9.9487E-01
 9.6558E-01
 9.0881E-01
 8.3069E-01
 9.1736E-01
 1.1005E+00
 1.1621E+00
 1.0486E+00
 8.8928E-01
 8.3923E-01
 9.0637E-01
 1.0004E+00
 9.4604E-01
 8.8318E-01
 9.2590E-01
 1.0229E+00
 1.0504E+00
 9.8694E-01
 9.4849E-01
 9.7290E-01
 1.0516E+00
 1.0852E+00
 9.8633E-01
 9.6252E-01
 1.0626E+00
 1.1646E+00
 1.1475E+00
 1.0498E+00
 8.8806E-01
 8.6182E-01
 9.3872E-01
 9.0149E-01
 8.6182E-01
 8.0627E-01
 8.4778E-01
 9.3811E-01
 8.4778E-01
 7.4585E-01
 6.9702E-01
 7.8979E-01
 8.5266E-01
 7.0679E-01
 6.2134E-01
 6.8298E-01
 7.7942E-01
 7.8430E-01
 7.4524E-01
 7.2998E-01
 7.5439E-01
 7.7820E-01
 7.1472E-01
 6.2134E-01
 6.3110E-01
 7.4402E-01
 8.5571E-01
 9.0210E-01
 9.3933E-01
 1.0504E+00
 1.2274E+00
 1.3251E+00
 1.2152E+00
 1.0938E+00
 1.2036E+00
 1.4752E+00
 1.6425E+00
 1.5424E+00
 1.3910E+00
 1.4038E+00
 1.4874E+00
 1.4954E+00
 1.3782E+00
 1.3019E+00
 1.3269E+00
 1.2909E+00
 1.0492E+00
 7.6904E-01
 6.1218E-01
 5.4871E-01
 5.4993E-01
 4.5532E-01
 3.3020E-01
 2.8809E-01
 3.5522E-01
 4.0222E-01
 3.7231E-01
 3.3264E-01
 4.0039E-01
 4.9072E-01
 5.1086E-01
 3.6621E-01
 7.3853E-02
-3.5278E-01
-6.1096E-01
-3.3936E-01
 6.8359E-01
 2.5104E+00
 4.9121E+00
 4.9994E+00
 4.9994E+00
 4.9994E+00
 4.9994E+00
 4.9994E+00
 4.6423E+00
 1.1597E-02
-1.8103E+00
-2.1576E+00
-2.3798E+00
-2.3224E+00
-2.1259E+00
-1.7224E+00
-1.2054E+00
-6.0547E-01
-1.1597E-01
-6.4087E-02
-7.1411E-02
-1.4648E-02
 1.1841E-01
 2.2644E-01
 1.9470E-01
 1.8433E-01
 2.2400E-01
 2.8625E-01
 2.9907E-01
 2.1484E-01
 1.9714E-01
 3.1555E-01
 4.6021E-01
 4.3701E-01
 3.5156E-01
 3.3325E-01
 4.1321E-01
 5.3406E-01
 4.9866E-01
 4.8523E-01
 5.4138E-01
 7.0496E-01
 8.5754E-01
 8.0933E-01
 7.8979E-01
 8.4900E-01
 9.9426E-01
 1.1371E+00
 1.1084E+00
 1.0974E+00
 1.2567E+00
 1.4630E+00
 1.5033E+00
 1.4801E+00
 1.5967E+00
 1.8433E+00
 2.1222E+00
 2.2839E+00
 2.3145E+00
 2.3132E+00
 2.4799E+00
 2.6465E+00
 2.6038E+00
 2.5745E+00
 2.6166E+00
 2.7008E+00
 2.6642E+00
 2.4384E+00
 2.1906E+00
 2.0392E+00
 1.9916E+00
 1.8237E+00
 1.4996E+00
 1.2878E+00
 1.2006E+00
 1.1243E+00
 9.8206E-01
 7.5195E-01
 5.9082E-01
 5.5237E-01
 5.3528E-01
 3.7659E-01
 2.2522E-01
 1.9836E-01
 2.3193E-01
 2.5818E-01
 1.6479E-01
 1.0864E-01
 1.5991E-01
 2.8320E-01
 3.1189E-01
 2.6855E-01
 2.2888E-01
 1.7639E-01
 2.1179E-01
 2.6978E-01
 1.9897E-01
 1.0681E-01
 1.8188E-01
 2.8442E-01
 2.2400E-01
 1.4771E-01
 1.6052E-01
 2.3865E-01
 3.1982E-01
 2.2949E-01
 1.0925E-01
 8.3008E-02
 1.7639E-01
 2.6489E-01
 2.1484E-01
 1.4038E-01
 2.0630E-01
 3.1738E-01
 3.0457E-01
 2.0264E-01
 1.3550E-01
 1.6357E-01
 2.7283E-01
 3.4119E-01
 2.6611E-01
 1.3733E-01
 1.4771E-01
 2.8137E-01
 2.2949E-01
 5.7983E-02
 7.6904E-02
 1.3000E-01
 1.6541E-01
 1.6479E-01
 5.6152E-02
 4.4556E-02
 1.6479E-01
 2.3132E-01
 2.1729E-01
 2.2400E-01
 2.7100E-01
 4.4800E-01
 6.4331E-01
 6.2500E-01
 5.9937E-01
 7.0007E-01
 8.8074E-01
 9.7473E-01
 9.4299E-01
 8.6792E-01
 8.3801E-01
 8.7952E-01
 8.4473E-01
 7.0923E-01
 6.9763E-01
 7.5195E-01
 7.2327E-01
 4.7668E-01
 1.5564E-01
 3.8452E-02
 2.6855E-02
-4.8828E-03
-8.0566E-02
-1.2817E-01
-1.3306E-01
-7.3242E-02
-3.4180E-02
-1.2512E-01
-2.0508E-01
-2.2339E-01
-1.5625E-01
-7.5073E-02
-1.4893E-01
-3.8757E-01
-7.1899E-01
-1.0223E+00
-1.0419E+00
-3.0273E-01
 1.2115E+00
 3.7445E+00
 4.9994E+00
 4.9994E+00
 4.9994E+00
 4.9994E+00
 4.9994E+00
 4.9994E+00
 1.1304E+00
-1.9507E+00
-2.6270E+00
-2.9474E+00
-3.0145E+00
-2.8436E+00
-2.3657E+00
-1.7834E+00
-1.1511E+00
-6.3477E-01
-5.3711E-01
-5.7739E-01
-5.0781E-01
-4.0283E-01
-3.5889E-01
-4.6631E-01
-4.8523E-01
-3.7598E-01
-2.5818E-01
-2.6917E-01
-3.7903E-01
-3.6377E-01
-2.6733E-01
-2.2400E-01
-2.0386E-01
-2.1057E-01
-1.8372E-01
-4.4556E-02
 5.0659E-02
-3.8452E-02
-7.8125E-02
-1.6479E-02
 1.1108E-01
 1.9592E-01
 1.1047E-01
 8.0566E-02
 2.1790E-01
 4.4495E-01
 5.1819E-01
 4.8584E-01
 5.4626E-01
 7.0496E-01
 8.9905E-01
 9.5764E-01
 9.8816E-01
 1.1255E+00
 1.3489E+00
 1.5698E+00
 1.6528E+00
 1.7023E+00
 1.8396E+00
 2.0349E+00
 2.1289E+00
 2.0770E+00
 2.1008E+00
 2.1930E+00
 2.2247E+00
 2.1106E+00
 1.9147E+00
 1.8036E+00
 1.7706E+00
 1.7303E+00
 1.5051E+00
 1.1493E+00
 8.9172E-01
 7.6538E-01
 6.3416E-01
 4.4312E-01
 2.3193E-01
 9.7656E-02
 4.6997E-02
 1.2207E-02
-8.7891E-02
-1.5564E-01
-1.6418E-01
-1.3977E-01
-1.2634E-01
-1.9836E-01
-2.8381E-01
-3.4363E-01
-3.0701E-01
-3.1067E-01
-4.4922E-01
-4.7913E-01
-3.7476E-01
-3.2166E-01
-3.9978E-01
-5.5603E-01
-5.5786E-01
-4.9255E-01
-4.0039E-01
-3.9246E-01
-4.6936E-01
-4.7729E-01
-4.1260E-01
-4.0222E-01
-4.7607E-01
-5.3528E-01
-5.6091E-01
-4.6631E-01
-3.9734E-01
-4.3640E-01
-4.7974E-01
-4.9988E-01
-4.3274E-01
-3.7903E-01
-4.7241E-01
-4.9561E-01
-4.3457E-01
-4.1016E-01
-4.3945E-01
-5.6580E-01
-5.9021E-01
-4.9500E-01
-4.1077E-01
-4.4678E-01
-5.6274E-01
-6.1279E-01
-6.6040E-01
-6.5979E-01
-6.9763E-01
-6.9580E-01
-6.3232E-01
-5.6213E-01
-5.4138E-01
-6.1584E-01
-6.4087E-01
-5.3284E-01
-3.5278E-01
-2.4536E-01
-2.3132E-01
-2.1729E-01
-1.3000E-01
 3.5400E-02
 1.0132E-01
 7.8735E-02
 1.3611E-01
 2.2766E-01
 1.8127E-01
 9.3994E-02
 7.3853E-02
 8.4229E-02
 1.3611E-01
 1.1963E-01
-8.3008E-02
-3.4729E-01
-5.1392E-01
-5.2856E-01
-5.6335E-01
-7.3853E-01
-8.6975E-01
-8.8806E-01
-8.6792E-01
-8.6792E-01
-9.3628E-01
-9.4666E-01
-9.0332E-01
-8.4534E-01
-8.6304E-01
-9.7656E-01
-1.1060E+00
-1.2274E+00
-1.4337E+00
-1.8469E+00
-2.0953E+00
-1.5961E+00
-2.7649E-01
 1.8384E+00
 4.6619E+00
 4.9994E+00
 4.9994E+00
 4.9994E+00
 4.9994E+00
 4.9994E+00
 2.1851E+00
-1.7767E+00
-3.0231E+00
-3.4869E+00
-3.8013E+00
-3.8068E+00
-3.3276E+00
-2.6508E+00
-2.0679E+00
-1.7053E+00
-1.5021E+00
-1.4014E+00
-1.3434E+00
-1.3623E+00
-1.4606E+00
-1.4722E+00
-1.3568E+00
-1.2695E+00
-1.2891E+00
-1.2836E+00
-1.2421E+00
-1.1713E+00
-1.0956E+00
-1.1279E+00
-1.1951E+00
-1.1212E+00
-9.5032E-01
-8.9294E-01
-9.5581E-01
-9.6863E-01
-8.8867E-01
-7.4402E-01
-6.7383E-01
-7.5989E-01
-7.5623E-01
-6.2683E-01
-5.0110E-01
-4.5105E-01
-4.3030E-01
-3.2471E-01
-1.6296E-01
-5.6763E-02
-3.2959E-02
 1.7090E-02
 1.8066E-01
 4.1443E-01
 6.3965E-01
 6.8359E-01
 7.3853E-01
 9.2712E-01
 1.1145E+00
 1.2567E+00
 1.2915E+00
 1.3483E+00
 1.4490E+00
 1.5668E+00
 1.5765E+00
 1.4337E+00
 1.3080E+00
 1.2018E+00
 1.1322E+00
 9.1797E-01
 5.8533E-01
 3.9978E-01
 3.2227E-01
 1.9836E-01
-4.2725E-02
-3.0945E-01
-4.7180E-01
-5.0964E-01
-5.3528E-01
-7.4097E-01
-9.1125E-01
-9.1248E-01
-8.5693E-01
-8.6975E-01
-9.6130E-01
-9.7107E-01
-9.4055E-01
-8.5999E-01
-8.9661E-01
-1.0449E+00
-1.0315E+00
-9.3079E-01
-8.0505E-01
-8.1970E-01
-9.2468E-01
-9.9731E-01
-9.6313E-01
-8.7341E-01
-9.2163E-01
-1.0065E+00
-9.9976E-01
-9.1675E-01
-8.7952E-01
-9.2346E-01
-9.4421E-01
-9.1125E-01
-8.4167E-01
-8.2458E-01
-9.4666E-01
-1.0358E+00
-9.8389E-01
-8.4656E-01
-8.1543E-01
-8.9722E-01
-9.4482E-01
-8.7646E-01
-7.8308E-01
-7.7881E-01
-8.2703E-01
-8.7830E-01
-8.6548E-01
-7.6782E-01
-7.4951E-01
-8.3679E-01
-8.5327E-01
-8.0017E-01
-7.9651E-01
-8.5876E-01
-9.0027E-01
-8.8379E-01
-8.3618E-01
-8.4412E-01
-9.3201E-01
-9.7290E-01
-8.9172E-01
-7.3669E-01
-6.1707E-01
-6.7139E-01
-6.1279E-01
-4.9011E-01
-3.5400E-01
-3.7109E-01
-4.1931E-01
-2.7344E-01
-6.2256E-02
 1.0864E-01
 1.2207E-03
-2.1240E-01
-1.9287E-01
-7.6904E-02
-4.5166E-02
-1.8677E-01
-3.1189E-01
-3.2654E-01
-4.2053E-01
-5.7251E-01
-8.0017E-01
-9.5642E-01
-9.5154E-01
-9.2285E-01
-9.5093E-01
-1.0376E+00
-1.0822E+00
-1.0425E+00
-1.0071E+00
-1.0687E+00
-1.1670E+00
-1.1572E+00
-1.1102E+00
-1.0492E+00
-1.1322E+00
-1.5771E+00
-2.0459E+00
-2.0483E+00
-1.3696E+00
-9.7046E-02
 2.0581E+00
 4.8419E+00
 4.9994E+00
 4.9994E+00
 4.9994E+00
 4.9994E+00
 4.9994E+00
 1.5619E+00
-1.4691E+00
-2.8278E+00
-3.4027E+00
-3.6304E+00
-3.5120E+00
-3.0408E+00
-2.5861E+00
-2.0740E+00
-1.5631E+00
-1.3916E+00
-1.4703E+00
-1.5399E+00
-1.4795E+00
-1.3745E+00
-1.3000E+00
-1.2946E+00
-1.3245E+00
-1.3312E+00
-1.2195E+00
-1.1835E+00
-1.2134E+00
-1.1743E+00
-1.0797E+00
-9.7778E-01
-9.4421E-01
-1.0052E+00
-1.0773E+00
-1.0193E+00
-8.6060E-01
-8.4656E-01
-8.9294E-01
-8.1848E-01
-7.0435E-01
-5.6213E-01
-4.7668E-01
-4.9988E-01
-4.7791E-01
-3.4180E-01
-2.0691E-01
-1.9348E-01
-1.9897E-01
-6.4087E-02
 1.5869E-01
 2.9053E-01
 3.6560E-01
 4.6387E-01
 6.5002E-01
 9.0698E-01
 1.0956E+00
 1.1273E+00
 1.1853E+00
 1.2970E+00
 1.4063E+00
 1.4758E+00
 1.4764E+00
 1.4618E+00
 1.4661E+00
 1.4636E+00
 1.2952E+00
 1.0535E+00
 8.9172E-01
 7.9224E-01
 5.9753E-01
 3.1738E-01
 8.5449E-02
-4.3335E-02
-1.4160E-01
-2.9846E-01
-4.6509E-01
-5.7434E-01
-5.9814E-01
-5.9753E-01
-6.5674E-01
-8.1055E-01
-9.2712E-01
-8.7219E-01
-7.2876E-01
-7.3730E-01
-8.5144E-01
-8.8013E-01
-8.0933E-01
-7.4280E-01
-7.9773E-01
-9.5337E-01
-1.0089E+00
-9.3262E-01
-7.8613E-01
-8.0627E-01
-8.8074E-01
-8.5571E-01
-8.0444E-01
-7.6294E-01
-8.3374E-01
-9.2041E-01
-9.1492E-01
-7.9529E-01
-7.4951E-01
-8.4595E-01
-8.6670E-01
-8.3679E-01
-7.4524E-01
-7.3547E-01
-8.5693E-01
-9.1553E-01
-8.5144E-01
-7.5745E-01
-7.9163E-01
-8.6304E-01
-8.1299E-01
-7.0129E-01
-6.4087E-01
-7.1960E-01
-8.2825E-01
-8.4106E-01
-7.4951E-01
-7.0068E-01
-7.9346E-01
-8.5815E-01
-8.2092E-01
-7.4768E-01
-7.4158E-01
-8.0078E-01
-8.3313E-01
-7.9529E-01
-7.2998E-01
-7.8918E-01
-9.0454E-01
-9.0210E-01
-8.6304E-01
-8.0139E-01
-8.2642E-01
-9.1797E-01
-9.0149E-01
-7.2510E-01
-5.3040E-01
-4.9500E-01
-5.0720E-01
-4.7485E-01
-4.2053E-01
-3.3325E-01
-2.8381E-01
-2.0691E-01
-7.5684E-02
 6.8970E-02
 5.3101E-02
-9.4604E-02
-1.1780E-01
-5.0049E-02
-1.0986E-02
-5.9204E-02
-2.1606E-01
-4.1077E-01
-5.3589E-01
-6.1279E-01
-7.6050E-01
-9.6558E-01
-1.0675E+00
-1.0718E+00
-9.9182E-01
-9.6863E-01
-1.0846E+00
-1.1115E+00
-1.0071E+00
-9.2957E-01
-9.9121E-01
-1.1145E+00
-1.0767E+00
-1.0223E+00
-1.3110E+00
-1.9141E+00
-2.1753E+00
-1.6473E+00
-3.8086E-01
 1.5442E+00
 4.3335E+00
 4.9994E+00
 4.9994E+00
 4.9994E+00
 4.9994E+00
 4.9994E+00
 2.6794E+00
-7.9712E-01
-2.4127E+00
-3.1152E+00
-3.5474E+00
-3.6493E+00
-3.2251E+00
-2.6514E+00
-2.1875E+00
-1.7242E+00
-1.4508E+00
-1.3727E+00
-1.3635E+00
-1.4172E+00
-1.3983E+00
-1.3007E+00
-1.2067E+00
-1.2225E+00
-1.3379E+00
-1.3934E+00
-1.2762E+00
-1.1224E+00
-1.1340E+00
-1.2189E+00
-1.1902E+00
-1.0925E+00
-9.7107E-01
-9.8328E-01
-1.0498E+00
-9.7107E-01
-8.4412E-01
-7.5500E-01
-7.9285E-01
-7.7026E-01
-7.0129E-01
-6.2134E-01
-5.7129E-01
-5.7800E-01
-5.3894E-01
-3.9490E-01
-2.0813E-01
-1.4648E-01
-1.5015E-01
-3.4180E-02
 1.3367E-01
 3.0457E-01
 4.2236E-01
 4.9744E-01
 6.1340E-01
 8.2336E-01
 1.0370E+00
 1.1328E+00
 1.1615E+00
 1.2518E+00
 1.4136E+00
 1.5021E+00
 1.3898E+00
 1.3147E+00
 1.3202E+00
 1.2921E+00
 1.2115E+00
 9.8145E-01
 7.0190E-01
 5.4993E-01
 4.5044E-01
 2.2888E-01
-8.4229E-02
-3.2532E-01
-4.5471E-01
-4.9500E-01
-6.2195E-01
-7.6050E-01
-8.2458E-01
-8.4595E-01
-8.3496E-01
-8.8196E-01
-9.6008E-01
-9.5215E-01
-8.9294E-01
-8.9539E-01
-9.4238E-01
-1.0034E+00
-9.6497E-01
-8.3374E-01
-8.0872E-01
-9.4971E-01
-1.0339E+00
-9.3384E-01
-8.4534E-01
-9.2041E-01
-1.0248E+00
-1.0791E+00
-1.0638E+00
-9.2346E-01
-8.9905E-01
-9.5581E-01
-9.2102E-01
-8.0750E-01
-7.7454E-01
-8.2031E-01
-8.7891E-01
-8.6853E-01
-7.6904E-01
-7.5378E-01
-8.3862E-01
-9.2224E-01
-9.0149E-01
-8.0688E-01
-7.7759E-01
-8.4167E-01
-8.7219E-01
-8.1360E-01
-7.0984E-01
-7.3364E-01
-8.7524E-01
-9.2224E-01
-8.6548E-01
-7.6904E-01
-8.1238E-01
-8.9722E-01
-8.8257E-01
-7.9468E-01
-7.5562E-01
-8.0444E-01
-8.4412E-01
-9.0759E-01
-8.5083E-01
-7.5256E-01
-7.8735E-01
-6.8909E-01
-5.3406E-01
-3.9734E-01
-2.9968E-01
-3.7659E-01
-4.1870E-01
-3.0090E-01
-9.7046E-02
 1.0376E-02
 5.4932E-03
-4.3945E-02
-8.3618E-02
-1.7700E-02
 3.0518E-03
-6.8359E-02
-1.0132E-01
-5.6152E-02
-9.3384E-02
-3.3142E-01
-5.3711E-01
-6.5308E-01
-7.1411E-01
-8.2703E-01
-9.3689E-01
-9.8145E-01
-9.5337E-01
-9.0393E-01
-9.3445E-01
-1.0559E+00
-1.0803E+00
-9.9304E-01
-8.3862E-01
-8.1177E-01
-9.1553E-01
-9.9670E-01
-1.2567E+00
-1.6650E+00
-1.8854E+00
-1.4655E+00
-2.5879E-01
 1.8201E+00
 4.6759E+00
 4.9994E+00
 4.9994E+00
 4.9994E+00
 4.9994E+00
 4.9994E+00
 2.3724E+00
-9.3262E-01
-2.4469E+00
-2.9108E+00
-3.2397E+00
-3.4479E+00
-3.1427E+00
-2.5757E+00
-1.9659E+00
-1.4380E+00
-1.3513E+00
-1.3696E+00
-1.2384E+00
-1.1163E+00
-1.0986E+00
-1.1304E+00
-1.1249E+00
-1.0931E+00
-1.0223E+00
-1.0809E+00
-1.1505E+00
-1.1121E+00
-9.9731E-01
-8.5938E-01
-8.5144E-01
-8.5266E-01
-8.9233E-01
-8.3130E-01
-7.8613E-01
-8.9417E-01
-9.0271E-01
-8.0750E-01
-7.1899E-01
-6.7261E-01
-7.0435E-01
-6.5308E-01
-5.5725E-01
-4.3884E-01
-3.3020E-01
-3.1311E-01
-2.4353E-01
 3.6011E-02
 2.4597E-01
 3.2349E-01
 4.0100E-01
 5.4504E-01
 7.7026E-01
 9.7351E-01
 1.0126E+00
 1.0596E+00
 1.2372E+00
 1.4691E+00
 1.6125E+00
 1.6425E+00
 1.6687E+00
 1.7303E+00
 1.8347E+00
 1.8500E+00
 1.7242E+00
 1.6010E+00
 1.4716E+00
 1.3715E+00
 1.1133E+00
 7.9102E-01
 6.3843E-01
 5.8350E-01
 4.3457E-01
 1.8066E-01
-6.5918E-02
-1.9775E-01
-2.3254E-01
-2.7710E-01
-3.9124E-01
-4.6753E-01
-4.0771E-01
-3.5034E-01
-3.8940E-01
-5.4260E-01
-6.5491E-01
-5.8777E-01
-4.5654E-01
-4.2236E-01
-5.1514E-01
-5.5237E-01
-4.5288E-01
-3.8391E-01
-4.4800E-01
-5.5176E-01
-5.4810E-01
-4.6692E-01
-4.6631E-01
-5.0903E-01
-5.4199E-01
-5.4016E-01
-4.3701E-01
-3.3264E-01
-3.6194E-01
-4.3823E-01
-4.7913E-01
-3.9429E-01
-3.1799E-01
-4.0222E-01
-4.6692E-01
-4.8096E-01
-4.4861E-01
-4.0771E-01
-3.8879E-01
-4.3823E-01
-4.6814E-01
-4.0833E-01
-4.4678E-01
-4.8401E-01
-4.4556E-01
-3.8635E-01
-3.1921E-01
-3.9368E-01
-5.0781E-01
-5.3894E-01
-4.4678E-01
-3.3142E-01
-3.8025E-01
-5.1147E-01
-4.9683E-01
-2.7222E-01
-1.5381E-01
-2.0752E-01
-1.1536E-01
 2.5024E-02
 1.0925E-01
 9.2773E-02
 7.1411E-02
 1.8677E-01
 4.2114E-01
 5.9875E-01
 4.9561E-01
 2.7161E-01
 2.7222E-01
 4.0894E-01
 4.5471E-01
 3.4119E-01
 1.5076E-01
-4.2725E-03
-6.8359E-02
-1.1780E-01
-2.7649E-01
-4.3152E-01
-5.4688E-01
-5.0781E-01
-4.1931E-01
-5.3528E-01
-6.5918E-01
-6.6284E-01
-6.1340E-01
-5.2124E-01
-5.7190E-01
-6.5552E-01
-6.1157E-01
-5.5725E-01
-7.8247E-01
-1.3348E+00
-1.7804E+00
-1.6968E+00
-8.8501E-01
 5.2612E-01
 2.8204E+00
 4.9994E+00
 4.9994E+00
 4.9994E+00
 4.9994E+00
 4.9994E+00
 4.7668E+00
 8.0750E-01
-1.7712E+00
-2.8711E+00
-3.3276E+00
-3.4155E+00
-3.2214E+00
-2.8357E+00
-2.3669E+00
-1.8738E+00
-1.3873E+00
-1.0828E+00
-1.0767E+00
-1.1115E+00
-1.0388E+00
-9.3445E-01
-9.1003E-01
-9.6924E-01
-1.0114E+00
-9.6924E-01
-8.2458E-01
-7.2998E-01
-7.6050E-01
-7.7148E-01
-7.1533E-01
-6.3538E-01
-6.0486E-01
-6.6711E-01
-6.7444E-01
-6.2012E-01
-5.2185E-01
-4.7913E-01
-5.1941E-01
-4.4250E-01
-3.3752E-01
-1.8921E-01
-1.0254E-01
-1.2085E-01
-8.9111E-02
 1.9531E-02
 2.0020E-01
 2.9541E-01
 3.1738E-01
 4.2480E-01
 5.8899E-01
 7.6355E-01
 8.1482E-01
 8.3313E-01
 1.0321E+00
 1.3226E+00
 1.5283E+00
 1.5356E+00
 1.5857E+00
 1.7078E+00
 1.7902E+00
 1.8469E+00
 1.8231E+00
 1.7865E+00
 1.7859E+00
 1.7682E+00
 1.5692E+00
 1.3385E+00
 1.1481E+00
 9.7046E-01
 8.3679E-01
 6.2500E-01
 4.1626E-01
 2.9175E-01
 2.1912E-01
 9.3384E-02
-1.0864E-01
-2.9541E-01
-3.5583E-01
-3.3325E-01
-3.3813E-01
-4.4922E-01
-4.9988E-01
-4.5654E-01
-3.7598E-01
-3.5461E-01
-4.1809E-01
-3.9429E-01
-3.0762E-01
-1.9531E-01
-2.0813E-01
-3.3936E-01
-4.0833E-01
-3.7354E-01
-2.6062E-01
-3.1006E-01
-4.3884E-01
-3.8086E-01
-2.5574E-01
-1.5991E-01
-2.0203E-01
-3.4607E-01
-4.7668E-01
-4.2542E-01
-3.4302E-01
-3.7537E-01
-3.5706E-01
-2.8748E-01
-1.7883E-01
-1.2024E-01
-2.1301E-01
-3.5156E-01
-3.3203E-01
-2.3621E-01
-2.4475E-01
-3.2104E-01
-3.2166E-01
-3.0518E-01
-3.2227E-01
-3.8574E-01
-4.7668E-01
-4.9622E-01
-4.4983E-01
-3.7537E-01
-3.6194E-01
-3.4119E-01
-2.5452E-01
-6.4697E-02
 9.0332E-02
 3.4180E-02
-4.1504E-02
 1.6479E-02
 1.6541E-01
 3.1799E-01
 3.9001E-01
 3.1799E-01
 2.5513E-01
 3.6011E-01
 3.5889E-01
 1.7456E-01
 8.8501E-02
 7.6294E-02
 6.0425E-02
-8.3618E-02
-3.2166E-01
-4.7546E-01
-5.7312E-01
-6.7505E-01
-7.8735E-01
-8.2336E-01
-8.1787E-01
-7.6965E-01
-7.1533E-01
-8.0017E-01
-8.4595E-01
-7.5684E-01
-6.7871E-01
-6.6162E-01
-7.7393E-01
-9.6680E-01
-1.3434E+00
-1.6748E+00
-1.6046E+00
-8.5938E-01
 7.2144E-01
 3.4058E+00
 4.9994E+00
 4.9994E+00
 4.9994E+00
 4.9994E+00
 4.9994E+00
 4.3225E+00
-2.0813E-01
-2.5983E+00
-3.3527E+00
-3.5779E+00
-3.6255E+00
-3.4833E+00
-3.0200E+00
-2.4194E+00
-1.7584E+00
-1.2866E+00
-1.2805E+00
-1.3031E+00
-1.1920E+00
-1.0413E+00
-9.6375E-01
-1.0492E+00
-1.0901E+00
-9.8022E-01
-8.4351E-01
-8.9355E-01
-9.6558E-01
-9.4910E-01
-8.7036E-01
-7.7515E-01
-7.8125E-01
-7.7942E-01
-7.3914E-01
-6.2744E-01
-4.9988E-01
-5.4199E-01
-6.7322E-01
-6.2134E-01
-4.8157E-01
-4.1687E-01
-4.4434E-01
-3.9124E-01
-2.5146E-01
-9.7046E-02
-1.4038E-02
-1.4038E-02
 5.5542E-02
 2.4231E-01
 4.6814E-01
 5.7190E-01
 5.8289E-01
 6.7139E-01
 8.6365E-01
 1.0742E+00
 1.1511E+00
 1.2335E+00
 1.3989E+00
 1.5759E+00
 1.6315E+00
 1.5009E+00
 1.4661E+00
 1.5161E+00
 1.5424E+00
 1.5045E+00
 1.3440E+00
 1.1798E+00
 1.0089E+00
 9.3750E-01
 8.0017E-01
 4.4617E-01
 2.2705E-01
 1.3550E-01
 1.7090E-02
-1.2146E-01
-3.0945E-01
-4.8340E-01
-5.6885E-01
-5.2246E-01
-5.9082E-01
-7.5439E-01
-8.0811E-01
-7.4890E-01
-7.3059E-01
-8.5388E-01
-9.7717E-01
-9.8145E-01
-8.7830E-01
-8.0750E-01
-8.6975E-01
-9.9182E-01
-9.6619E-01
-9.0088E-01
-9.1248E-01
-9.7351E-01
-1.0345E+00
-1.0590E+00
-1.0278E+00
-1.0999E+00
-1.1792E+00
-1.2122E+00
-1.1627E+00
-1.1511E+00
-1.2396E+00
-1.2964E+00
-1.2561E+00
-1.1688E+00
-1.1267E+00
-1.2036E+00
-1.2354E+00
-1.2122E+00
-1.1755E+00
-1.1749E+00
-1.2885E+00
-1.3617E+00
-1.3446E+00
-1.2823E+00
-1.2823E+00
-1.3452E+00
-1.3904E+00
-1.3861E+00
-1.2573E+00
-1.1884E+00
-1.2341E+00
-1.1981E+00
-1.0339E+00
-9.5093E-01
-1.0486E+00
-1.1273E+00
-1.0345E+00
-8.5510E-01
-7.5623E-01
-8.3313E-01
-9.9060E-01
-1.0370E+00
-9.4238E-01
-9.9548E-01
-1.1554E+00
-1.2689E+00
-1.4233E+00
-1.5900E+00
-1.7139E+00
-1.8988E+00
-2.0856E+00
-2.1680E+00
-2.2034E+00
-2.3010E+00
-2.3969E+00
-2.3993E+00
-2.3413E+00
-2.3108E+00
-2.4194E+00
-2.5159E+00
-2.5012E+00
-2.4579E+00
-2.4377E+00
-2.6288E+00
-3.0652E+00
-3.4961E+00
-3.6084E+00
-3.0981E+00
-1.9098E+00
 2.0386E-01
 3.5229E+00
 4.9994E+00
 4.9994E+00
 4.9994E+00
 4.9994E+00
 4.0283E+00
-2.4353E-01
-3.8214E+00
-5.0000E+00
-5.0000E+00
-5.0000E+00
-5.0000E+00
-5.0000E+00
-4.7833E+00
-4.2523E+00
-3.7543E+00
-3.5565E+00
-3.6725E+00
-3.7524E+00
-3.6835E+00
-3.6029E+00
-3.5699E+00
-3.6597E+00
-3.7354E+00
-3.6816E+00
-3.5919E+00
-3.6273E+00
-3.7231E+00
-3.7598E+00
-3.6713E+00
-3.5730E+00
-3.6035E+00
-3.6694E+00
-3.7024E+00
-3.6523E+00
-3.5699E+00
-3.6310E+00
-3.7842E+00
-3.7628E+00
-3.6578E+00
-3.6261E+00
-3.7048E+00
-3.7134E+00
-3.6188E+00
-3.5175E+00
-3.4540E+00
-3.4723E+00
-3.4839E+00
-3.3252E+00
-3.1158E+00
-3.0060E+00
-3.0145E+00
-2.9663E+00
-2.7643E+00
-2.5787E+00
-2.5433E+00
-2.5848E+00
-2.5336E+00
-2.3926E+00
-2.2638E+00
-2.2662E+00
-2.3108E+00
-2.3529E+00
-2.4078E+00
-2.4835E+00
-2.7112E+00
-2.9761E+00
-3.1274E+00
-3.2489E+00
-3.4399E+00
-3.7366E+00
-3.9661E+00
-4.1309E+00
-4.2725E+00
-4.4232E+00
-4.6503E+00
-4.8596E+00
-4.9500E+00
-4.9359E+00
-5.0000E+00
-5.0000E+00
-5.0000E+00
-5.0000E+00
-5.0000E+00
-5.0000E+00
-5.0000E+00
-5.0000E+00
-5.0000E+00
-5.0000E+00
-5.0000E+00
-5.0000E+00
-5.0000E+00
-5.0000E+00
-5.0000E+00
-5.0000E+00
-5.0000E+00
-5.0000E+00
-5.0000E+00
-5.0000E+00
-5.0000E+00
-5.0000E+00
-5.0000E+00
-5.0000E+00
-5.0000E+00
-5.0000E+00
-5.0000E+00
-5.0000E+00
-5.0000E+00
-5.0000E+00
-5.0000E+00
-5.0000E+00
-5.0000E+00
-5.0000E+00
-5.0000E+00
-5.0000E+00
-5.0000E+00
-5.0000E+00
-5.0000E+00
-5.0000E+00
-5.0000E+00
-5.0000E+00
-5.0000E+00
-5.0000E+00
-5.0000E+00
-5.0000E+00
-5.0000E+00
-5.0000E+00
-5.0000E+00
-5.0000E+00
-5.0000E+00
-5.0000E+00
-5.0000E+00
-5.0000E+00
-5.0000E+00
-5.0000E+00
-5.0000E+00
-5.0000E+00
-5.0000E+00
-5.0000E+00
-5.0000E+00
-5.0000E+00
-5.0000E+00
-5.0000E+00
-5.0000E+00
-5.0000E+00
-5.0000E+00
-5.0000E+00
-5.0000E+00
-5.0000E+00
-5.0000E+00
-5.0000E+00
-5.0000E+00
-5.0000E+00
-5.0000E+00
-5.0000E+00
-5.0000E+00
-5.0000E+00
-5.0000E+00
-5.0000E+00
-5.0000E+00
-5.0000E+00
-5.0000E+00
-5.0000E+00
-5.0000E+00
-5.0000E+00
-5.0000E+00
-3.2458E+00
 2.7588E-01
 3.8354E+00
 4.9994E+00
 4.9994E+00
 2.9779E+00
-1.6034E+00
-4.9512E+00
-5.0000E+00
-5.0000E+00
-5.0000E+00
-5.0000E+00
-5.0000E+00
-5.0000E+00
-5.0000E+00
-5.0000E+00
-5.0000E+00
-5.0000E+00
-5.0000E+00
-5.0000E+00
-5.0000E+00
-5.0000E+00
-5.0000E+00
-5.0000E+00
-5.0000E+00
-5.0000E+00
-5.0000E+00
-5.0000E+00
-5.0000E+00
-5.0000E+00
-5.0000E+00
-5.0000E+00
-5.0000E+00
-5.0000E+00
-5.0000E+00
-5.0000E+00
-5.0000E+00
-5.0000E+00
-5.0000E+00
-5.0000E+00
-5.0000E+00
-5.0000E+00
-5.0000E+00
-5.0000E+00
-5.0000E+00
-5.0000E+00
-5.0000E+00
-5.0000E+00
-5.0000E+00
-5.0000E+00
-5.0000E+00
-5.0000E+00
-5.0000E+00
-5.0000E+00
-5.0000E+00
-5.0000E+00
-5.0000E+00
-5.0000E+00
-5.0000E+00
-5.0000E+00
-5.0000E+00
-4.8975E+00
-4.8773E+00
-4.9573E+00
-4.9963E+00
-4.9860E+00
-5.0000E+00
-5.0000E+00
-5.0000E+00
-5.0000E+00
-5.0000E+00
-5.0000E+00
-5.0000E+00
-5.0000E+00
-5.0000E+00
-5.0000E+00
-5.0000E+00
-5.0000E+00
-5.0000E+00
-5.0000E+00
-5.0000E+00
-5.0000E+00
-5.0000E+00
-5.0000E+00
-5.0000E+00
-5.0000E+00
-5.0000E+00
-5.0000E+00
-5.0000E+00
-5.0000E+00
-5.0000E+00
-5.0000E+00
-5.0000E+00
-5.0000E+00
-5.0000E+00
-5.0000E+00
-5.0000E+00
-5.0000E+00
-5.0000E+00
-5.0000E+00
-5.0000E+00
-5.0000E+00
-5.0000E+00
-5.0000E+00
-5.0000E+00
-5.0000E+00
-5.0000E+00
-5.0000E+00
-5.0000E+00
-5.0000E+00
-5.0000E+00
-5.0000E+00
-5.0000E+00
-5.0000E+00
-5.0000E+00
-5.0000E+00
-5.0000E+00
-5.0000E+00
-5.0000E+00
-5.0000E+00
-5.0000E+00
-5.0000E+00
-5.0000E+00
-5.0000E+00
-5.0000E+00
-5.0000E+00
-5.0000E+00
-5.0000E+00
-5.0000E+00
-5.0000E+00
-5.0000E+00
-5.0000E+00
-5.0000E+00
-5.0000E+00
-5.0000E+00
-5.0000E+00
-5.0000E+00
-5.0000E+00
-5.0000E+00
-5.0000E+00
-5.0000E+00
-5.0000E+00
-5.0000E+00
-5.0000E+00
-5.0000E+00
-5.0000E+00
-4.9774E+00
-4.9982E+00
-5.0000E+00
-5.0000E+00
-5.0000E+00
-5.0000E+00
-5.0000E+00
-5.0000E+00
-5.0000E+00
-5.0000E+00
-5.0000E+00
-5.0000E+00
-5.0000E+00
-5.0000E+00
-5.0000E+00
-5.0000E+00
-5.0000E+00
-5.0000E+00
-5.0000E+00
-5.0000E+00
-5.0000E+00
-5.0000E+00
-5.0000E+00
-5.0000E+00
-5.0000E+00
-5.0000E+00
-5.0000E+00
-5.0000E+00
-5.0000E+00
-4.5782E+00
-2.3499E+00
 8.5327E-01
 4.2883E+00
 4.9994E+00
 4.9994E+00
 4.9994E+00
 2.1448E+00
-2.1375E+00
-5.0000E+00
-5.0000E+00
-5.0000E+00
-5.0000E+00
-5.0000E+00
-5.0000E+00
-5.0000E+00
-5.0000E+00
-5.0000E+00
-5.0000E+00
-5.0000E+00
-5.0000E+00
-5.0000E+00
-5.0000E+00
-5.0000E+00
-5.0000E+00
-4.8950E+00
-4.9011E+00
-4.9823E+00
-4.9390E+00
-4.8419E+00
-4.7211E+00
-4.7235E+00
-4.8236E+00
-4.7833E+00
-4.6167E+00
-4.4507E+00
-4.4177E+00
-4.4391E+00
-4.3561E+00
-4.2603E+00
-4.1986E+00
-4.1919E+00
-4.1718E+00
-4.0686E+00
-3.9026E+00
-3.7787E+00
-3.7518E+00
-3.6548E+00
-3.4619E+00
-3.2422E+00
-3.1750E+00
-3.1421E+00
-2.9810E+00
-2.7222E+00
-2.4719E+00
-2.3383E+00
-2.2803E+00
-2.1454E+00
-1.8878E+00
-1.6699E+00
-1.5881E+00
-1.5234E+00
-1.4032E+00
-1.2714E+00
-1.1877E+00
-1.2921E+00
-1.4398E+00
-1.4758E+00
-1.4703E+00
-1.5845E+00
-1.8231E+00
-2.0355E+00
-2.1558E+00
-2.2278E+00
-2.3657E+00
-2.6337E+00
-2.8094E+00
-2.8668E+00
-2.8760E+00
-2.9657E+00
-3.0743E+00
-3.1342E+00
-3.1128E+00
-3.0206E+00
-3.0713E+00
-3.1226E+00
-3.0463E+00
-2.9614E+00
-2.9211E+00
-2.9376E+00
-2.9480E+00
-2.8729E+00
-2.7710E+00
-2.7502E+00
-2.8497E+00
-2.8625E+00
-2.7899E+00
-2.7112E+00
-2.7222E+00
-2.8156E+00
-2.7875E+00
-2.6147E+00
-2.4603E+00
-2.4445E+00
-2.5269E+00
-2.5146E+00
-2.4402E+00
-2.3615E+00
-2.3315E+00
-2.5085E+00
-2.5525E+00
-2.3456E+00
-2.2217E+00
-2.2791E+00
-2.3187E+00
-2.2516E+00
-2.1198E+00
-2.0410E+00
-2.0959E+00
-2.1942E+00
-2.1729E+00
-2.0807E+00
-2.0697E+00
-2.1515E+00
-2.1832E+00
-2.1613E+00
-2.0715E+00
-2.0868E+00
-2.1619E+00
-2.0734E+00
-2.0197E+00
-1.9659E+00
-1.9678E+00
-2.0459E+00
-2.0465E+00
-1.9403E+00
-1.8390E+00
-1.8408E+00
-1.8793E+00
-1.8372E+00
-1.7255E+00
-1.7200E+00
-1.8323E+00
-1.8402E+00
-1.6974E+00
-1.5967E+00
-1.6180E+00
-1.7224E+00
-1.7084E+00
-1.5765E+00
-1.4282E+00
-1.2549E+00
-1.1816E+00
-1.0626E+00
-8.4778E-01
-6.8542E-01
-7.7271E-01
-8.1604E-01
-6.4087E-01
-4.1321E-01
-2.5635E-01
-2.8564E-01
-3.3264E-01
-3.1128E-01
-2.1667E-01
-2.1973E-01
-3.4912E-01
-3.6316E-01
-3.1311E-01
-3.3325E-01
-4.7058E-01
-7.0007E-01
-8.1665E-01
-8.2642E-01
-7.7576E-01
-7.9651E-01
-8.9722E-01
-9.2590E-01
-8.0383E-01
-7.1533E-01
-7.8857E-01
-8.5693E-01
-7.6172E-01
-6.2012E-01
-5.8350E-01
-6.8604E-01
-1.0284E+00
-1.4288E+00
-1.5106E+00
-9.4116E-01
 2.1790E-01
 2.2284E+00
 4.8907E+00
 4.9994E+00
 4.9994E+00
 4.9994E+00
 4.9994E+00
 4.9994E+00
 2.8009E+00
-5.6152E-01
-2.1527E+00
-2.5513E+00
-2.7966E+00
-2.7386E+00
-2.2577E+00
-1.7328E+00
-1.2109E+00
-6.9092E-01
-4.6936E-01
-5.2063E-01
-5.9143E-01
-5.5420E-01
-3.4851E-01
-2.2339E-01
-2.5269E-01
-2.1057E-01
-1.3062E-01
-3.7231E-02
 4.6387E-02
 1.2207E-02
 1.2207E-02
 1.1963E-01
 2.8687E-01
 3.0334E-01
 1.9775E-01
 2.4231E-01
 3.7964E-01
 4.8401E-01
 4.7913E-01
 4.4189E-01
 5.2917E-01
 7.1838E-01
 8.7769E-01
 9.0332E-01
 9.0515E-01
 1.0168E+00
 1.2268E+00
 1.3678E+00
 1.3635E+00
 1.4349E+00
 1.5674E+00
 1.7755E+00
 1.9720E+00
 2.0068E+00
 2.0551E+00
 2.2668E+00
 2.5439E+00
 2.6984E+00
 2.7118E+00
 2.7924E+00
 3.0292E+00
 3.2410E+00
 3.2452E+00
 3.2184E+00
 3.2678E+00
 3.3502E+00
 3.3759E+00
 3.2245E+00
 3.0536E+00
 2.9742E+00
 2.9773E+00
 2.8644E+00
 2.5739E+00
 2.3541E+00
 2.2626E+00
 2.1857E+00
 2.0746E+00
 1.8677E+00
 1.7273E+00
 1.6846E+00
 1.6876E+00
 1.6522E+00
 1.4954E+00
 1.4606E+00
 1.5485E+00
 1.6528E+00
 1.6425E+00
 1.5698E+00
 1.6095E+00
 1.7609E+00
 1.8341E+00
 1.7633E+00
 1.6803E+00
 1.7029E+00
 1.7889E+00
 1.8811E+00
 1.8188E+00
 1.7615E+00
 1.8420E+00
 1.9324E+00
 1.9360E+00
 1.7749E+00
 1.7200E+00
 1.8396E+00
 1.9427E+00
 1.8842E+00
 1.7749E+00
 1.8329E+00
 1.9421E+00
 2.0117E+00
 2.0117E+00
 1.9659E+00
 1.9666E+00
 2.0245E+00
 2.0715E+00
 1.9952E+00
 1.9867E+00
 2.0947E+00
 2.1948E+00
 2.1930E+00
 2.0850E+00
 2.0557E+00
 2.0880E+00
 2.1594E+00
 2.1826E+00
 2.1112E+00
 2.1252E+00
 2.2491E+00
 2.3499E+00
 2.3199E+00
 2.2125E+00
 2.2241E+00
 2.2760E+00
 2.3450E+00
 2.3816E+00
 2.3102E+00
 2.3260E+00
 2.4341E+00
 2.4915E+00
 2.3920E+00
 2.3865E+00
 2.4860E+00
 2.5836E+00
 2.6697E+00
 2.5653E+00
 2.5220E+00
 2.7319E+00
 2.9730E+00
 3.0670E+00
 3.0328E+00
 3.0328E+00
 3.1598E+00
 3.3936E+00
 3.5303E+00
 3.5577E+00
 3.6188E+00
 3.6682E+00
 3.6298E+00
 3.5803E+00
 3.5455E+00
 3.5492E+00
 3.6536E+00
 3.7183E+00
 3.5150E+00
 3.1964E+00
 3.0499E+00
 3.0762E+00
 3.0579E+00
 2.8955E+00
 2.7179E+00
 2.7148E+00
 2.8235E+00
 2.8510E+00
 2.7948E+00
 2.8351E+00
 2.9279E+00
 2.9138E+00
 2.8522E+00
 2.8528E+00
 2.8339E+00
 2.7319E+00
 2.4152E+00
 1.9897E+00
 2.0605E+00
 2.9590E+00
 4.5856E+00
 4.9994E+00
 4.9994E+00
 4.9994E+00
 4.9994E+00
 4.9994E+00
 4.9994E+00
 4.9994E+00
 4.0454E+00
 1.5887E+00
 9.6191E-01
 7.9224E-01
 5.5908E-01
 7.1777E-01
 1.2402E+00
 1.8018E+00
 2.3102E+00
 2.6624E+00
 2.6733E+00
 2.6770E+00
 2.7954E+00
 2.8223E+00
 2.8241E+00
 2.9169E+00
 3.0792E+00
 3.1671E+00
 3.0743E+00
 2.9718E+00
 2.9919E+00
 3.1311E+00
 3.2959E+00
 3.3258E+00
 3.2422E+00
 3.2294E+00
 3.4003E+00
 3.4888E+00
 3.4436E+00
 3.4558E+00
 3.6072E+00
 3.7927E+00
 3.8049E+00
 3.7152E+00
 3.7128E+00
 3.8660E+00
 4.0533E+00
 4.0918E+00
 4.0930E+00
 4.1345E+00
 4.2212E+00
 4.3188E+00
 4.3494E+00
 4.3756E+00
 4.5227E+00
 4.7711E+00
 4.9689E+00
 4.9994E+00
 4.9994E+00
 4.9994E+00
 4.9994E+00
 4.9994E+00
 4.9994E+00
 4.9994E+00
 4.9994E+00
 4.9994E+00
 4.9994E+00
 4.9994E+00
 4.9994E+00
 4.9994E+00
 4.9994E+00
 4.9994E+00
 4.8541E+00
 4.6497E+00
 4.5929E+00
 4.5062E+00
 4.2377E+00
 3.9337E+00
 3.7799E+00
 3.8110E+00
 3.8251E+00
 3.7012E+00
 3.5504E+00
 3.5468E+00
 3.6420E+00
 3.6279E+00
 3.5492E+00
 3.5846E+00
 3.6426E+00
 3.6548E+00
 3.5663E+00
 3.4418E+00
 3.4509E+00
 3.5938E+00
 3.6945E+00
 3.6810E+00
 3.6401E+00
 3.6237E+00
 3.6584E+00
 3.7189E+00
 3.6200E+00
 3.4717E+00
 3.4906E+00
 3.6261E+00
 3.6896E+00
 3.5736E+00
 3.5071E+00
 3.5767E+00
 3.6877E+00
 3.7213E+00
 3.6304E+00
 3.5706E+00
 3.6090E+00
 3.6713E+00
 3.6481E+00
 3.5327E+00
 3.5004E+00
 3.5291E+00
 3.5620E+00
 3.5089E+00
 3.4668E+00
 3.5657E+00
 3.6646E+00
 3.6407E+00
 3.5455E+00
 3.4796E+00
 3.4979E+00
 3.5498E+00
 3.5931E+00
 3.5272E+00
 3.4424E+00
 3.4393E+00
 3.5931E+00
 3.6444E+00
 3.4955E+00
 3.4399E+00
 3.4814E+00
 3.5889E+00
 3.5864E+00
 3.4637E+00
 3.5205E+00
 3.6725E+00
 3.7543E+00
 3.7927E+00
 3.7640E+00
 3.7573E+00
 3.8837E+00
 4.0356E+00
 4.0289E+00
 4.0637E+00
 4.2010E+00
 4.2755E+00
 4.2810E+00
 4.2255E+00
 4.1382E+00
 4.0771E+00
 4.0991E+00
 4.0338E+00
 3.7207E+00
 3.4644E+00
 3.3649E+00
 3.3221E+00
 3.1171E+00
 2.8839E+00
 2.8925E+00
 3.0054E+00
 3.1482E+00
 3.1061E+00
 2.9993E+00
 2.9529E+00
 2.9138E+00
 2.9230E+00
 2.7625E+00
 2.6575E+00
 2.6630E+00
 2.4518E+00
 2.0050E+00
 1.7059E+00
 2.0490E+00
 3.2867E+00
 4.9792E+00
 4.9994E+00
 4.9994E+00
 4.9994E+00
 4.9994E+00
 4.9994E+00
 4.9994E+00
 4.7638E+00
 1.8463E+00
 2.0569E-01
-1.3428E-01
-3.3142E-01
-4.0527E-01
-7.4463E-02
 5.2490E-01
 1.0205E+00
 1.4331E+00
 1.7096E+00
 1.8079E+00
 1.8927E+00
 1.9055E+00
 1.7590E+00
 1.6687E+00
 1.7310E+00
 1.8530E+00
 1.8933E+00
 1.7896E+00
 1.7633E+00
 1.7853E+00
 1.8604E+00
 1.8945E+00
 1.8158E+00
 1.8152E+00
 1.7865E+00
 1.7230E+00
 1.6870E+00
 1.7139E+00
 1.7859E+00
 1.8909E+00
 1.9757E+00
 1.8933E+00
 1.8512E+00
 1.9037E+00
 2.0050E+00
 2.1027E+00
 2.0605E+00
 2.0026E+00
 2.0374E+00
 2.2449E+00
 2.3932E+00
 2.3743E+00
 2.4396E+00
 2.5830E+00
 2.7020E+00
 2.7905E+00
 2.7722E+00
 2.7844E+00
 2.9016E+00
 3.1018E+00
 3.1207E+00
 3.0347E+00
 3.0463E+00
 3.0927E+00
 3.1335E+00
 3.0145E+00
 2.7869E+00
 2.5989E+00
 2.4951E+00
 2.3712E+00
 2.0599E+00
 1.6986E+00
 1.4423E+00
 1.2970E+00
 1.0870E+00
 7.3547E-01
 4.7485E-01
 3.8086E-01
 3.3020E-01
 1.8799E-01
-4.2114E-02
-1.7395E-01
-2.2217E-01
-1.9348E-01
-2.8503E-01
-4.5654E-01
-5.1086E-01
-4.8950E-01
-4.6814E-01
-5.8228E-01
-7.5562E-01
-8.1055E-01
-7.3120E-01
-7.3059E-01
-8.8440E-01
-1.0284E+00
-1.0706E+00
-1.0425E+00
-1.0565E+00
-1.1615E+00
-1.3025E+00
-1.3495E+00
-1.2823E+00
-1.3184E+00
-1.4752E+00
-1.5662E+00
-1.5344E+00
-1.4709E+00
-1.5625E+00
-1.7145E+00
-1.7322E+00
-1.7120E+00
-1.7590E+00
-1.8616E+00
-1.9635E+00
-2.0245E+00
-2.0367E+00
-2.0697E+00
-2.1887E+00
-2.2998E+00
-2.3859E+00
-2.3083E+00
-2.2845E+00
-2.4524E+00
-2.6007E+00
-2.6392E+00
-2.5836E+00
-2.6263E+00
-2.7637E+00
-2.7692E+00
-2.6471E+00
-2.5311E+00
-2.5385E+00
-2.5739E+00
-2.5854E+00
-2.5726E+00
-2.4750E+00
-2.4493E+00
-2.5085E+00
-2.5073E+00
-2.4677E+00
-2.5067E+00
-2.6550E+00
-2.7563E+00
-2.7881E+00
-2.7179E+00
-2.7106E+00
-2.9431E+00
-3.2599E+00
-3.4497E+00
-3.5291E+00
-3.6743E+00
-3.8916E+00
-4.0485E+00
-4.0436E+00
-3.9911E+00
-4.1132E+00
-4.3011E+00
-4.3909E+00
-4.3597E+00
-4.3042E+00
-4.4031E+00
-4.5251E+00
-4.5007E+00
-4.5050E+00
-4.8016E+00
-5.0000E+00
-5.0000E+00
-5.0000E+00
-3.9197E+00
-1.8640E+00
 1.2958E+00
 4.6472E+00
 4.9994E+00
 4.9994E+00
 4.9994E+00
 2.5366E+00
-2.1356E+00
-5.0000E+00
-5.0000E+00
-5.0000E+00
-5.0000E+00
-5.0000E+00
-5.0000E+00
-5.0000E+00
-5.0000E+00
-5.0000E+00
-5.0000E+00
-5.0000E+00
-5.0000E+00
-5.0000E+00
-5.0000E+00
-5.0000E+00
-5.0000E+00
-5.0000E+00
-5.0000E+00
-5.0000E+00
-5.0000E+00
-5.0000E+00
-5.0000E+00
-5.0000E+00
-5.0000E+00
-5.0000E+00
-5.0000E+00
-5.0000E+00
-5.0000E+00
-5.0000E+00
-5.0000E+00
-5.0000E+00
-5.0000E+00
-5.0000E+00
-5.0000E+00
-5.0000E+00
-5.0000E+00
-5.0000E+00
-5.0000E+00
-5.0000E+00
-5.0000E+00
-5.0000E+00
-5.0000E+00
-5.0000E+00
-5.0000E+00
-5.0000E+00
-5.0000E+00
-5.0000E+00
-5.0000E+00
-5.0000E+00
-5.0000E+00
-5.0000E+00
-5.0000E+00
-5.0000E+00
-4.9646E+00
-4.9091E+00
-4.9976E+00
-5.0000E+00
-5.0000E+00
-5.0000E+00
-5.0000E+00
-5.0000E+00
-5.0000E+00
-5.0000E+00
-5.0000E+00
-5.0000E+00
-5.0000E+00
-5.0000E+00
-5.0000E+00
-5.0000E+00
-5.0000E+00
-5.0000E+00
-5.0000E+00
-5.0000E+00
-5.0000E+00
-5.0000E+00
-5.0000E+00
-5.0000E+00
-5.0000E+00
-5.0000E+00
-5.0000E+00
-5.0000E+00
-5.0000E+00
-5.0000E+00
-5.0000E+00
-5.0000E+00
-5.0000E+00
-5.0000E+00
-5.0000E+00
-5.0000E+00
-5.0000E+00
-5.0000E+00
-5.0000E+00
-5.0000E+00
-5.0000E+00
-5.0000E+00
-5.0000E+00
-5.0000E+00
-5.0000E+00
-5.0000E+00
-5.0000E+00
-5.0000E+00
-5.0000E+00
-5.0000E+00
-5.0000E+00
-5.0000E+00
-5.0000E+00
-5.0000E+00
-5.0000E+00
-5.0000E+00
-5.0000E+00
-5.0000E+00
-5.0000E+00
-5.0000E+00
-5.0000E+00
-5.0000E+00
-5.0000E+00
-5.0000E+00
-5.0000E+00
-5.0000E+00
-5.0000E+00
-5.0000E+00
-5.0000E+00
-5.0000E+00
-5.0000E+00
-5.0000E+00
-5.0000E+00
-5.0000E+00
-5.0000E+00
-5.0000E+00
-5.0000E+00
-5.0000E+00
-5.0000E+00
-5.0000E+00
-5.0000E+00
-5.0000E+00
-5.0000E+00
-5.0000E+00
-5.0000E+00
-5.0000E+00
-5.0000E+00
-5.0000E+00
-5.0000E+00
-5.0000E+00
-5.0000E+00
-5.0000E+00
-5.0000E+00
-5.0000E+00
-5.0000E+00
-5.0000E+00
-5.0000E+00
-5.0000E+00
-5.0000E+00
-5.0000E+00
-5.0000E+00
-5.0000E+00
-5.0000E+00
-5.0000E+00
-5.0000E+00
-5.0000E+00
-5.0000E+00
-5.0000E+00
-5.0000E+00
-3.3990E+00
 2.0447E-01
 3.9032E+00
 4.9994E+00
 4.9994E+00
 3.7665E+00
-6.7627E-01
-4.4885E+00
-5.0000E+00
-5.0000E+00
-5.0000E+00
-5.0000E+00
-5.0000E+00
-5.0000E+00
-5.0000E+00
-5.0000E+00
-5.0000E+00
-5.0000E+00
-5.0000E+00
-5.0000E+00
-5.0000E+00
-5.0000E+00
-5.0000E+00
-5.0000E+00
-5.0000E+00
-5.0000E+00
-5.0000E+00
-5.0000E+00
-5.0000E+00
-5.0000E+00
-5.0000E+00
-5.0000E+00
-5.0000E+00
-5.0000E+00
-5.0000E+00
-5.0000E+00
-5.0000E+00
-5.0000E+00
-5.0000E+00
-5.0000E+00
-5.0000E+00
-5.0000E+00
-5.0000E+00
-5.0000E+00
-5.0000E+00
-4.9371E+00
-4.8151E+00
-4.7852E+00
-4.7931E+00
-4.5923E+00
-4.3146E+00
-4.1602E+00
-4.1290E+00
-4.0070E+00
-3.7933E+00
-3.5791E+00
-3.4637E+00
-3.4167E+00
-3.3374E+00
-3.1543E+00
-2.9486E+00
-2.9108E+00
-2.9651E+00
-2.9791E+00
-2.9175E+00
-2.8857E+00
-3.0707E+00
-3.3368E+00
-3.5059E+00
-3.5901E+00
-3.7054E+00
-3.8977E+00
-4.1119E+00
-4.2316E+00
-4.2804E+00
-4.4043E+00
-4.5972E+00
-4.7205E+00
-4.6851E+00
-4.6075E+00
-4.6606E+00
-4.7729E+00
-4.7870E+00
-4.6985E+00
-4.5490E+00
-4.5532E+00
-4.6747E+00
-4.6600E+00
-4.5154E+00
-4.4238E+00
-4.4708E+00
-4.6069E+00
-4.5844E+00
-4.4122E+00
-4.3250E+00
-4.3903E+00
-4.4568E+00
-4.4031E+00
-4.2804E+00
-4.2944E+00
-4.4672E+00
-4.5148E+00
-4.3488E+00
-4.2181E+00
-4.2645E+00
-4.3579E+00
-4.3359E+00
-4.2316E+00
-4.1357E+00
-4.1180E+00
-4.1302E+00
-4.0833E+00
-3.9746E+00
-3.8843E+00
-3.9362E+00
-4.0179E+00
-3.9490E+00
-3.7756E+00
-3.7183E+00
-3.7817E+00
-3.8055E+00
-3.7683E+00
-3.6481E+00
-3.5822E+00
-3.6572E+00
-3.6920E+00
-3.5828E+00
-3.4088E+00
-3.4070E+00
-3.4601E+00
-3.4241E+00
-3.2678E+00
-3.0896E+00
-3.0328E+00
-3.0688E+00
-3.0640E+00
-2.9846E+00
-2.8729E+00
-2.7576E+00
-2.6569E+00
-2.5488E+00
-2.4225E+00
-2.4646E+00
-2.5513E+00
-2.5232E+00
-2.4622E+00
-2.3608E+00
-2.3566E+00
-2.5641E+00
-2.7808E+00
-2.8247E+00
-2.8088E+00
-2.8662E+00
-3.0499E+00
-3.1464E+00
-3.0566E+00
-2.9401E+00
-3.0005E+00
-3.1000E+00
-3.0756E+00
-3.0164E+00
-2.9730E+00
-3.0096E+00
-3.1445E+00
-3.1482E+00
-3.1500E+00
-3.4027E+00
-3.8470E+00
-4.0192E+00
-3.4265E+00
-2.0013E+00
 2.5391E-01
 3.4851E+00
 4.9994E+00
 4.9994E+00
 4.9994E+00
 4.9994E+00
 3.9337E+00
-1.2817E-01
-3.2654E+00
-4.4604E+00
-4.9530E+00
-5.0000E+00
-5.0000E+00
-4.6680E+00
-4.0723E+00
-3.6420E+00
-3.2635E+00
-3.0835E+00
-2.9828E+00
-2.9303E+00
-3.0353E+00
-3.0652E+00
-2.9169E+00
-2.7466E+00
-2.7203E+00
-2.8204E+00
-2.8589E+00
-2.7472E+00
-2.5775E+00
-2.5476E+00
-2.7185E+00
-2.7557E+00
-2.5977E+00
-2.4249E+00
-2.4066E+00
-2.4811E+00
-2.4310E+00
-2.2693E+00
-2.1509E+00
-2.1783E+00
-2.2516E+00
-2.1790E+00
-2.0056E+00
-1.8805E+00
-1.9104E+00
-1.8787E+00
-1.7328E+00
-1.5656E+00
-1.4471E+00
-1.4410E+00
-1.3867E+00
-1.2109E+00
-9.6375E-01
-8.4778E-01
-8.3435E-01
-6.7932E-01
-4.0283E-01
-1.6052E-01
-1.0986E-01
-1.6602E-01
-1.3428E-01
-9.0332E-02
-4.6997E-02
-7.0190E-02
-1.7761E-01
-2.8381E-01
-2.9907E-01
-3.4851E-01
-6.4453E-01
-9.3201E-01
-1.0010E+00
-1.0474E+00
-1.2689E+00
-1.6187E+00
-1.8213E+00
-1.8866E+00
-1.9403E+00
-2.0209E+00
-2.1661E+00
-2.2394E+00
-2.2345E+00
-2.1741E+00
-2.2058E+00
-2.3444E+00
-2.3517E+00
-2.2186E+00
-2.1124E+00
-2.2113E+00
-2.3737E+00
-2.3773E+00
-2.2430E+00
-2.2339E+00
-2.3657E+00
-2.4005E+00
-2.2253E+00
-2.0544E+00
-2.0215E+00
-2.0917E+00
-2.1606E+00
-2.0984E+00
-1.9501E+00
-1.9897E+00
-2.1790E+00
-2.1747E+00
-2.0441E+00
-1.9318E+00
-1.9843E+00
-2.1094E+00
-2.1167E+00
-2.0642E+00
-2.0111E+00
-2.0306E+00
-2.1350E+00
-2.1393E+00
-2.0355E+00
-1.9916E+00
-2.0715E+00
-2.1606E+00
-2.1490E+00
-2.0648E+00
-2.0685E+00
-2.2095E+00
-2.2510E+00
-2.1698E+00
-2.0764E+00
-2.1179E+00
-2.2803E+00
-2.3846E+00
-2.2919E+00
-2.1112E+00
-2.1423E+00
-2.2565E+00
-2.2516E+00
-2.1185E+00
-1.9476E+00
-1.9818E+00
-1.9934E+00
-1.8933E+00
-1.7761E+00
-1.7377E+00
-1.8121E+00
-1.7108E+00
-1.4380E+00
-1.2238E+00
-1.2238E+00
-1.4362E+00
-1.4923E+00
-1.3348E+00
-1.2201E+00
-1.3165E+00
-1.5497E+00
-1.6644E+00
-1.7487E+00
-1.8384E+00
-1.9464E+00
-2.1045E+00
-2.2064E+00
-2.1906E+00
-2.1301E+00
-2.1826E+00
-2.2687E+00
-2.2052E+00
-2.0856E+00
-2.0966E+00
-2.2083E+00
-2.2552E+00
-2.1362E+00
-1.9324E+00
-1.9989E+00
-2.5470E+00
-3.0573E+00
-3.1293E+00
-2.4591E+00
-1.1334E+00
 8.9783E-01
 4.0533E+00
 4.9994E+00
 4.9994E+00
 4.9994E+00
 4.9994E+00
 4.5258E+00
 9.2163E-01
-2.2705E+00
-3.7628E+00
-4.2316E+00
-4.4836E+00
-4.3866E+00
-3.9008E+00
-3.4674E+00
-3.0811E+00
-2.5916E+00
-2.2528E+00
-2.1570E+00
-2.2076E+00
-2.2528E+00
-2.1649E+00
-2.0380E+00
-1.9519E+00
-1.9666E+00
-1.9720E+00
-1.8414E+00
-1.7072E+00
-1.7603E+00
-1.9159E+00
-1.9336E+00
-1.8060E+00
-1.7426E+00
-1.8127E+00
-1.8402E+00
-1.7108E+00
-1.4795E+00
-1.3251E+00
-1.3904E+00
-1.4246E+00
-1.3324E+00
-1.2231E+00
-1.1139E+00
-1.1066E+00
-1.0925E+00
-9.7778E-01
-7.6843E-01
-6.1768E-01
-5.4932E-01
-4.6692E-01
-2.7344E-01
-2.8687E-02
 8.3008E-02
 9.6436E-02
 2.3865E-01
 5.2612E-01
 7.8247E-01
 8.9172E-01
 9.5642E-01
 1.1096E+00
 1.3110E+00
 1.4026E+00
 1.3208E+00
 1.2183E+00
 1.2140E+00
 1.2286E+00
 1.1572E+00
 9.7290E-01
 7.5378E-01
 5.8899E-01
 4.7974E-01
 2.8687E-01
-3.8452E-02
-2.8748E-01
-3.9673E-01
-5.7617E-01
-7.8003E-01
-9.2651E-01
-9.5154E-01
-8.9722E-01
-9.0393E-01
-1.0175E+00
-1.1157E+00
-1.1096E+00
-1.0394E+00
-9.8755E-01
-1.0919E+00
-1.1865E+00
-1.1169E+00
-9.9365E-01
-9.1248E-01
-9.8694E-01
-1.1304E+00
-1.0614E+00
-8.9966E-01
-9.1919E-01
-1.0632E+00
-1.1523E+00
-1.0962E+00
-9.7107E-01
-9.8206E-01
-1.1493E+00
-1.1694E+00
-1.0028E+00
-8.9478E-01
-1.0138E+00
-1.1499E+00
-1.1743E+00
-1.0632E+00
-8.7524E-01
-8.5510E-01
-9.5825E-01
-1.0217E+00
-8.7036E-01
-8.1238E-01
-9.8938E-01
-1.0724E+00
-9.5154E-01
-7.7637E-01
-7.8979E-01
-9.4971E-01
-1.0046E+00
-9.2285E-01
-8.2275E-01
-8.4229E-01
-9.8145E-01
-1.0327E+00
-8.8135E-01
-7.3364E-01
-8.0078E-01
-7.6904E-01
-6.4636E-01
-5.1880E-01
-4.1687E-01
-4.7913E-01
-5.7983E-01
-5.5969E-01
-4.1992E-01
-3.1433E-01
-3.4180E-01
-3.3691E-01
-3.1616E-01
-2.3682E-01
-1.8982E-01
-3.0090E-01
-3.6438E-01
-3.0457E-01
-3.2104E-01
-5.5237E-01
-8.5938E-01
-9.9304E-01
-9.2407E-01
-8.9905E-01
-1.0559E+00
-1.1627E+00
-1.1621E+00
-1.0620E+00
-1.0120E+00
-1.1804E+00
-1.3403E+00
-1.3306E+00
-1.1932E+00
-1.0754E+00
-1.1298E+00
-1.2689E+00
-1.4380E+00
-1.7603E+00
-2.1051E+00
-1.9568E+00
-8.8379E-01
 1.1420E+00
 4.1711E+00
 4.9994E+00
 4.9994E+00
 4.9994E+00
 4.9994E+00
 4.9994E+00
 2.5305E+00
-1.3776E+00
-3.2739E+00
-3.5309E+00
-3.6914E+00
-3.8159E+00
-3.6133E+00
-3.0933E+00
-2.4542E+00
-1.8616E+00
-1.5454E+00
-1.5137E+00
-1.4410E+00
-1.3220E+00
-1.3062E+00
-1.3538E+00
-1.3062E+00
-1.2219E+00
-1.1145E+00
-1.1212E+00
-1.1652E+00
-1.1121E+00
-9.2224E-01
-6.9702E-01
-7.7393E-01
-9.2651E-01
-9.5093E-01
-8.3984E-01
-7.0251E-01
-7.2510E-01
-7.4951E-01
-6.8787E-01
-5.1514E-01
-3.8513E-01
-4.4189E-01
-4.7302E-01
-3.4241E-01
-1.4587E-01
-7.3242E-03
 3.2349E-02
 1.0559E-01
 3.0151E-01
 5.5664E-01
 6.6956E-01
 6.8176E-01
 7.8613E-01
 1.0046E+00
 1.2195E+00
 1.3049E+00
 1.3721E+00
 1.5680E+00
 1.8213E+00
 2.0001E+00
 1.9696E+00
 1.9287E+00
 2.0447E+00
 2.1307E+00
 2.0850E+00
 1.9269E+00
 1.7999E+00
 1.7627E+00
 1.7523E+00
 1.6315E+00
 1.3110E+00
 1.0187E+00
 8.8745E-01
 7.9285E-01
 6.6406E-01
 4.7180E-01
 2.7771E-01
 2.1240E-01
 2.9236E-01
 1.9409E-01
-1.8311E-03
-4.6997E-02
 4.0894E-02
 1.1414E-01
 6.4087E-02
 5.3711E-02
 1.3000E-01
 2.7771E-01
 3.3752E-01
 2.2400E-01
 1.3367E-01
 1.7761E-01
 3.1860E-01
 3.5400E-01
 2.4231E-01
 2.0569E-01
 2.9480E-01
 4.1077E-01
 4.1016E-01
 3.4241E-01
 3.0334E-01
 3.5645E-01
 4.8401E-01
 4.8401E-01
 4.1016E-01
 4.3640E-01
 6.0547E-01
 6.6528E-01
 5.4138E-01
 4.8157E-01
 5.0476E-01
 6.4331E-01
 7.4219E-01
 6.5247E-01
 5.5725E-01
 5.8289E-01
 6.6345E-01
 7.1533E-01
 6.5063E-01
 5.8899E-01
 6.6467E-01
 8.0872E-01
 7.7393E-01
 6.4331E-01
 6.5674E-01
 8.1299E-01
 1.0321E+00
 1.0645E+00
 1.0229E+00
 1.1230E+00
 1.3428E+00
 1.4551E+00
 1.3281E+00
 1.3074E+00
 1.5338E+00
 1.7883E+00
 1.8738E+00
 1.7572E+00
 1.6296E+00
 1.7450E+00
 1.8896E+00
 1.8359E+00
 1.6858E+00
 1.6357E+00
 1.6010E+00
 1.5210E+00
 1.3727E+00
 1.1755E+00
 1.0968E+00
 1.1115E+00
 1.1646E+00
 1.1151E+00
 1.0486E+00
 1.0883E+00
 1.1993E+00
 1.2091E+00
 1.0803E+00
 9.9609E-01
 1.0638E+00
 1.2347E+00
 1.3287E+00
 1.1401E+00
 6.9092E-01
 3.4180E-01
 4.9194E-01
 1.3019E+00
 2.7765E+00
 4.8706E+00
 4.9994E+00
 4.9994E+00
 4.9994E+00
 4.9994E+00
 4.9994E+00
 4.9994E+00
 3.1183E+00
 1.4160E-01
-8.5754E-01
-1.0425E+00
-1.0681E+00
-7.6843E-01
-3.2349E-01
 1.3733E-01
 7.4036E-01
 1.3770E+00
 1.5747E+00
 1.4111E+00
 1.3525E+00
 1.4636E+00
 1.6083E+00
 1.6797E+00
 1.6443E+00
 1.6241E+00
 1.7499E+00
 1.9666E+00
 2.0337E+00
 1.9958E+00
 2.0129E+00
 2.1362E+00
 2.2809E+00
 2.2784E+00
 2.2351E+00
 2.2974E+00
 2.4237E+00
 2.5342E+00
 2.4750E+00
 2.3975E+00
 2.4713E+00
 2.7271E+00
 2.9205E+00
 2.8491E+00
 2.8296E+00
 2.9779E+00
 3.1812E+00
 3.2953E+00
 3.3453E+00
 3.4790E+00
 3.6694E+00
 3.9465E+00
 4.1327E+00
 4.1589E+00
 4.2133E+00
 4.4183E+00
 4.6887E+00
 4.7498E+00
 4.7205E+00
 4.8578E+00
 4.9994E+00
 4.9994E+00
 4.9994E+00
 4.9994E+00
 4.9994E+00
 4.9994E+00
 4.9994E+00
 4.9683E+00
 4.7076E+00
 4.5459E+00
 4.5435E+00
 4.4293E+00
 4.1095E+00
 3.8306E+00
 3.7103E+00
 3.7146E+00
 3.6255E+00
 3.4210E+00
 3.3130E+00
 3.3368E+00
 3.3856E+00
 3.3112E+00
 3.1610E+00
 3.1079E+00
 3.2184E+00
 3.3179E+00
 3.2599E+00
 3.1403E+00
 3.1842E+00
 3.3429E+00
 3.4729E+00
 3.4070E+00
 3.3014E+00
 3.3801E+00
 3.5193E+00
 3.4778E+00
 3.2446E+00
 3.1946E+00
 3.2788E+00
 3.3716E+00
 3.3698E+00
 3.3313E+00
 3.3734E+00
 3.4711E+00
 3.5907E+00
 3.5449E+00
 3.4070E+00
 3.4119E+00
 3.5248E+00
 3.6261E+00
 3.5724E+00
 3.4692E+00
 3.4949E+00
 3.6713E+00
 3.7659E+00
 3.6755E+00
 3.5596E+00
 3.5455E+00
 3.6548E+00
 3.7097E+00
 3.5938E+00
 3.5394E+00
 3.6206E+00
 3.7573E+00
 3.8403E+00
 3.8019E+00
 3.8806E+00
 4.0649E+00
 4.2267E+00
 4.2480E+00
 4.1858E+00
 4.2383E+00
 4.4897E+00
 4.7876E+00
 4.7870E+00
 4.5892E+00
 4.5325E+00
 4.6979E+00
 4.7327E+00
 4.5459E+00
 4.4281E+00
 4.3732E+00
 4.3182E+00
 4.1559E+00
 3.9587E+00
 3.8623E+00
 3.8892E+00
 3.9514E+00
 3.8916E+00
 3.7360E+00
 3.7030E+00
 3.8092E+00
 3.8922E+00
 3.8470E+00
 3.7787E+00
 3.8202E+00
 3.8751E+00
 3.9362E+00
 3.8928E+00
 3.5999E+00
 3.1409E+00
 2.9150E+00
 3.1897E+00
 4.0967E+00
 4.9994E+00
 4.9994E+00
 4.9994E+00
 4.9994E+00
 4.9994E+00
 4.9994E+00
 4.9994E+00
 4.9994E+00
 4.2639E+00
 1.9666E+00
 1.3855E+00
 1.2744E+00
 1.2897E+00
 1.6986E+00
 2.1863E+00
 2.6910E+00
 3.2751E+00
 3.6346E+00
 3.6316E+00
 3.6139E+00
 3.6792E+00
 3.8062E+00
 3.8727E+00
 3.8177E+00
 3.7616E+00
 3.8794E+00
 4.0649E+00
 4.1870E+00
 4.1278E+00
 4.0997E+00
 4.1937E+00
 4.3225E+00
 4.3280E+00
 4.1748E+00
 4.1071E+00
 4.2212E+00
 4.3170E+00
 4.2853E+00
 4.2316E+00
 4.3188E+00
 4.4360E+00
 4.4739E+00
 4.3292E+00
 4.2407E+00
 4.4202E+00
 4.7046E+00
 4.8572E+00
 4.8706E+00
 4.9371E+00
 4.9994E+00
 4.9994E+00
 4.9994E+00
 4.9994E+00
 4.9994E+00
 4.9994E+00
 4.9994E+00
 4.9994E+00
 4.9994E+00
 4.9994E+00
 4.9994E+00
 4.9994E+00
 4.9994E+00
 4.9994E+00
 4.9994E+00
 4.9994E+00
 4.9994E+00
 4.9994E+00
 4.9994E+00
 4.9994E+00
 4.9994E+00
 4.9994E+00
 4.9994E+00
 4.9994E+00
 4.9994E+00
 4.9994E+00
 4.9994E+00
 4.7443E+00
 4.5966E+00
 4.5959E+00
 4.6185E+00
 4.5337E+00
 4.4049E+00
 4.4061E+00
 4.4751E+00
 4.5746E+00
 4.5557E+00
 4.4318E+00
 4.3994E+00
 4.5081E+00
 4.5947E+00
 4.4830E+00
 4.3988E+00
 4.4666E+00
 4.5624E+00
 4.5996E+00
 4.5496E+00
 4.5160E+00
 4.5496E+00
 4.6576E+00
 4.6973E+00
 4.6014E+00
 4.5331E+00
 4.5770E+00
 4.6741E+00
 4.6899E+00
 4.5886E+00
 4.5569E+00
 4.6216E+00
 4.6948E+00
 4.6527E+00
 4.5679E+00
 4.5825E+00
 4.6881E+00
 4.7687E+00
 4.6686E+00
 4.5697E+00
 4.5941E+00
 4.7028E+00
 4.8022E+00
 4.7186E+00
 4.5844E+00
 4.5966E+00
 4.6875E+00
 4.7052E+00
 4.5911E+00
 4.5233E+00
 4.5911E+00
 4.7687E+00
 4.8669E+00
 4.8846E+00
 4.9994E+00
 4.9994E+00
 4.9994E+00
 4.9994E+00
 4.9994E+00
 4.9994E+00
 4.9994E+00
 4.9994E+00
 4.9994E+00
 4.9994E+00
 4.9994E+00
 4.9994E+00
 4.9994E+00
 4.9994E+00
 4.9994E+00
 4.9994E+00
 4.9994E+00
 4.9915E+00
 4.8059E+00
 4.6564E+00
 4.7021E+00
 4.7736E+00
 4.7272E+00
 4.5996E+00
 4.5605E+00
 4.6423E+00
 4.7211E+00
 4.6460E+00
 4.4836E+00
 4.4580E+00
 4.5789E+00
 4.6967E+00
 4.4891E+00
 3.9496E+00
 3.5046E+00
 3.5846E+00
 4.4727E+00
 4.9994E+00
 4.9994E+00
 4.9994E+00
 4.9994E+00
 4.9994E+00
 4.9994E+00
 4.9994E+00
 4.9994E+00
 4.9994E+00
 3.4662E+00
 2.3529E+00
 2.0508E+00
 1.9128E+00
 2.2156E+00
 2.7600E+00
 3.2123E+00
 3.6798E+00
 4.1016E+00
 4.2352E+00
 4.1754E+00
 4.0845E+00
 4.1284E+00
 4.3121E+00
 4.4147E+00
 4.3524E+00
 4.2834E+00
 4.3549E+00
 4.4946E+00
 4.5349E+00
 4.4214E+00
 4.3530E+00
 4.4446E+00
 4.5721E+00
 4.5862E+00
 4.5532E+00
 4.6332E+00
 4.7223E+00
 4.7986E+00
 4.7729E+00
 4.6448E+00
 4.6277E+00
 4.7241E+00
 4.8798E+00
 4.9261E+00
 4.9335E+00
 4.9957E+00
 4.9994E+00
 4.9994E+00
 4.9994E+00
 4.9994E+00
 4.9994E+00
 4.9994E+00
 4.9994E+00
 4.9994E+00
 4.9994E+00
 4.9994E+00
 4.9994E+00
 4.9994E+00
 4.9994E+00
 4.9994E+00
 4.9994E+00
 4.9994E+00
 4.9994E+00
 4.9994E+00
 4.9994E+00
 4.9994E+00
 4.9994E+00
 4.9994E+00
 4.9994E+00
 4.9994E+00
 4.9994E+00
 4.9994E+00
 4.9994E+00
 4.9994E+00
 4.9994E+00
 4.9994E+00
 4.9994E+00
 4.9561E+00
 4.8395E+00
 4.8413E+00
 4.8560E+00
 4.8004E+00
 4.6429E+00
 4.5520E+00
 4.5959E+00
 4.7168E+00
 4.7321E+00
 4.5905E+00
 4.5532E+00
 4.6875E+00
 4.8041E+00
 4.7241E+00
 4.6216E+00
 4.6063E+00
 4.6564E+00
 4.7217E+00
 4.6637E+00
 4.5740E+00
 4.6399E+00
 4.7607E+00
 4.7626E+00
 4.6613E+00
 4.6198E+00
 4.6802E+00
 4.8004E+00
 4.8254E+00
 4.6545E+00
 4.5551E+00
 4.6051E+00
 4.7168E+00
 4.6655E+00
 4.5288E+00
 4.4928E+00
 4.5081E+00
 4.5813E+00
 4.6362E+00
 4.5660E+00
 4.5300E+00
 4.5435E+00
 4.5947E+00
 4.5282E+00
 4.4275E+00
 4.4092E+00
 4.4873E+00
 4.5398E+00
 4.4403E+00
 4.3799E+00
 4.4342E+00
 4.5343E+00
 4.5264E+00
 4.4519E+00
 4.4574E+00
 4.5691E+00
 4.7046E+00
 4.7418E+00
 4.7552E+00
 4.8474E+00
 4.9518E+00
 4.9994E+00
 4.9994E+00
 4.9994E+00
 4.9994E+00
 4.9994E+00
 4.9994E+00
 4.9994E+00
 4.9994E+00
 4.9994E+00
 4.9994E+00
 4.9994E+00
 4.9548E+00
 4.6722E+00
 4.5148E+00
 4.5050E+00
 4.4403E+00
 4.2529E+00
 4.1315E+00
 4.0491E+00
 4.0643E+00
 4.1058E+00
 3.9996E+00
 3.9374E+00
 3.9886E+00
 4.0552E+00
 4.0259E+00
 3.9294E+00
 3.9069E+00
 3.9069E+00
 3.6536E+00
 3.1250E+00
 2.8455E+00
 3.3258E+00
 4.6460E+00
 4.9994E+00
 4.9994E+00
 4.9994E+00
 4.9994E+00
 4.9994E+00
 4.9994E+00
 4.9994E+00
 4.9994E+00
 3.5168E+00
 2.4957E+00
 1.9373E+00
 1.4136E+00
 1.3208E+00
 1.8140E+00
 2.4469E+00
 2.8912E+00
 3.2648E+00
 3.4863E+00
 3.6340E+00
 3.7244E+00
 3.6115E+00
 3.5529E+00
 3.6389E+00
 3.7836E+00
 3.8422E+00
 3.7860E+00
 3.7616E+00
 3.8300E+00
 3.9667E+00
 4.0094E+00
 3.9246E+00
 3.9160E+00
 3.9752E+00
 4.0863E+00
 4.1101E+00
 4.0106E+00
 4.0015E+00
 4.1742E+00
 4.2822E+00
 4.2102E+00
 4.1412E+00
 4.2090E+00
 4.3726E+00
 4.4391E+00
 4.4031E+00
 4.4165E+00
 4.5587E+00
 4.7131E+00
 4.8169E+00
 4.8553E+00
 4.8901E+00
 4.9994E+00
 4.9994E+00
 4.9994E+00
 4.9994E+00
 4.9994E+00
 4.9994E+00
 4.9994E+00
 4.9994E+00
 4.9994E+00
 4.9994E+00
 4.9994E+00
 4.9994E+00
 4.9994E+00
 4.9994E+00
 4.9994E+00
 4.9994E+00
 4.9994E+00
 4.9994E+00
 4.9994E+00
 4.9994E+00
 4.9994E+00
 4.9731E+00
 4.6838E+00
 4.4666E+00
 4.3872E+00
 4.3384E+00
 4.2523E+00
 4.0796E+00
 3.9392E+00
 3.9502E+00
 3.9917E+00
 3.9624E+00
 3.8708E+00
 3.8580E+00
 3.9270E+00
 3.9374E+00
 3.8470E+00
 3.7488E+00
 3.7476E+00
 3.8129E+00
 3.8727E+00
 3.7964E+00
 3.7250E+00
 3.7848E+00
 3.8733E+00
 3.8843E+00
 3.7836E+00
 3.7378E+00
 3.8257E+00
 3.9478E+00
 3.9233E+00
 3.7842E+00
 3.7659E+00
 3.8177E+00
 3.9258E+00
 3.8849E+00
 3.7524E+00
 3.7335E+00
 3.8361E+00
 3.8885E+00
 3.8361E+00
 3.7817E+00
 3.8000E+00
 3.8556E+00
 3.9227E+00
 3.8574E+00
 3.7634E+00
 3.7872E+00
 3.9337E+00
 3.9563E+00
 3.7823E+00
 3.6786E+00
 3.6719E+00
 3.7677E+00
 3.8153E+00
 3.7628E+00
 3.7219E+00
 3.7354E+00
 3.8092E+00
 3.8269E+00
 3.8177E+00
 3.9307E+00
 4.1083E+00
 4.2297E+00
 4.2365E+00
 4.1577E+00
 4.0991E+00
 4.2047E+00
 4.4067E+00
 4.4501E+00
 4.4641E+00
 4.4934E+00
 4.4830E+00
 4.5239E+00
 4.4666E+00
 4.3951E+00
 4.4031E+00
 4.3542E+00
 4.2383E+00
 3.9948E+00
 3.7323E+00
 3.6639E+00
 3.6792E+00
 3.5339E+00
 3.3716E+00
 3.3392E+00
 3.4259E+00
 3.5016E+00
 3.4100E+00
 3.2843E+00
 3.2947E+00
 3.3838E+00
 3.4528E+00
 3.3508E+00
 3.1494E+00
 2.9834E+00
 2.6965E+00
 2.3090E+00
 2.1625E+00
 2.8241E+00
 4.2859E+00
 4.9994E+00
 4.9994E+00
 4.9994E+00
 4.9994E+00
 4.9994E+00
 4.9994E+00
 4.9994E+00
 4.6417E+00
 1.2659E+00
 1.0632E+00
 9.6313E-01
 6.1279E-01
 6.1279E-01
 1.0168E+00
 1.5234E+00
 2.0563E+00
 2.4725E+00
 2.6160E+00
 2.6007E+00
 2.7106E+00
 2.8088E+00
 2.7740E+00
 2.7374E+00
 2.7637E+00
 2.8235E+00
 2.7942E+00
 2.7008E+00
 2.7118E+00
 2.8326E+00
 2.9718E+00
 2.9724E+00
 2.9108E+00
 2.8522E+00
 2.8967E+00
 3.0103E+00
 2.9224E+00
 2.7417E+00
 2.7167E+00
 2.7795E+00
 2.9126E+00
 2.9181E+00
 2.8528E+00
 2.9498E+00
 3.0988E+00
 3.1537E+00
 3.0939E+00
 3.0548E+00
 3.1549E+00
 3.3856E+00
 3.5120E+00
 3.4991E+00
 3.5510E+00
 3.7048E+00
 3.9282E+00
 4.0204E+00
 4.0222E+00
 4.1260E+00
 4.3390E+00
 4.5294E+00
 4.5313E+00
 4.5227E+00
 4.5868E+00
 4.6375E+00
 4.6588E+00
 4.4824E+00
 4.2761E+00
 4.1766E+00
 4.1089E+00
 3.9581E+00
 3.6267E+00
 3.3612E+00
 3.2556E+00
 3.1030E+00
 2.8546E+00
 2.5549E+00
 2.3608E+00
 2.2400E+00
 2.1747E+00
 2.0868E+00
 1.8878E+00
 1.7853E+00
 1.8408E+00
 1.9690E+00
 1.9385E+00
 1.7877E+00
 1.7157E+00
 1.7578E+00
 1.8005E+00
 1.7102E+00
 1.5637E+00
 1.4728E+00
 1.5320E+00
 1.5656E+00
 1.4630E+00
 1.3892E+00
 1.3721E+00
 1.4197E+00
 1.4294E+00
 1.3171E+00
 1.2091E+00
 1.1475E+00
 1.1908E+00
 1.2311E+00
 1.1066E+00
 1.0583E+00
 1.1383E+00
 1.2500E+00
 1.1737E+00
 1.0022E+00
 9.5520E-01
 1.0059E+00
 1.0132E+00
 9.0271E-01
 8.0078E-01
 8.2947E-01
 8.7524E-01
 8.3374E-01
 6.5308E-01
 5.4504E-01
 5.6641E-01
 6.5247E-01
 6.9641E-01
 5.7312E-01
 4.7119E-01
 5.0964E-01
 6.0242E-01
 5.6030E-01
 3.9856E-01
 3.1921E-01
 3.8818E-01
 5.3955E-01
 5.3467E-01
 4.7729E-01
 5.3162E-01
 6.4148E-01
 7.7393E-01
 8.3374E-01
 8.5815E-01
 8.8562E-01
 9.5581E-01
 1.0291E+00
 8.3191E-01
 6.8115E-01
 7.5073E-01
 7.9224E-01
 7.7026E-01
 6.7993E-01
 5.0354E-01
 3.0884E-01
 1.9714E-01
 2.3804E-02
-2.4719E-01
-4.1748E-01
-4.7241E-01
-4.6143E-01
-5.5664E-01
-7.2449E-01
-7.2021E-01
-6.4575E-01
-6.3538E-01
-7.1350E-01
-8.5449E-01
-8.6365E-01
-7.5928E-01
-8.0200E-01
-1.2000E+00
-1.7908E+00
-2.0215E+00
-1.5417E+00
-3.8696E-01
 1.4618E+00
 4.3774E+00
 4.9994E+00
 4.9994E+00
 4.9994E+00
 4.9994E+00
 4.9994E+00
